254
248
61
32899
130
248
57
137
145
135
248
50
141
149
136
249
72
79
248
56
34440
130
248
49
126
125
126
248
62
125
123
126
248
48
126
124
126
248
49
126
125
126
248
49
126
125
126
248
49
126
125
126
248
49
126
125
126
248
49
126
125
126
248
50
126
125
127
248
50
126
125
127
248
50
126
125
127
248
50
126
125
127
248
50
126
125
127
248
50
126
125
127
248
51
126
126
127
248
52
127
126
127
248
55
128
128
127
248
59
129
130
128
248
61
130
131
128
248
49
131
133
129
248
51
132
134
129
248
51
132
134
129
248
52
133
134
129
248
51
132
134
129
248
50
132
133
129
248
48
131
132
129
248
59
129
130
128
248
56
128
128
128
248
51
126
126
127
248
48
125
124
127
248
63
125
124
126
248
63
125
124
126
248
63
125
124
126
248
63
125
124
126
248
63
125
124
126
248
63
125
124
126
248
48
125
125
126
248
48
125
125
126
248
50
126
125
127
248
50
126
125
127
248
50
126
125
127
248
50
126
125
127
248
50
126
125
127
248
50
126
32127
248
50
126
125
127
248
50
126
125
127
248
50
126
125
127
248
50
126
125
127
248
50
126
125
127
248
51
126
126
127
248
51
126
126
127
248
51
126
126
127
248
51
126
126
127
248
51
126
126
127
248
53
127
127
127
252
115
31
7
33
48
248
58
129
129
128
255
30
31
0
248
59
129
130
128
248
60
130
130
128
250
122
0
248
59
129
130
128
248
56
128
128
128
248
52
127
126
127
248
51
126
126
127
248
51
126
126
127
248
51
126
126
127
248
51
126
126
127
248
51
126
126
127
248
51
126
126
127
248
51
126
126
127
248
51
126
126
127
248
51
126
126
127
248
49
125
125
127
248
59
128
130
129
248
56
137
144
135
248
50
141
149
136
249
72
79
248
59
134
138
131
248
51
127
32382
248
62
125
123
126
248
63
125
124
126
248
49
126
125
126
248
49
126
125
126
248
49
126
125
126
248
49
126
125
126
248
49
126
125
126
248
50
126
125
127
248
50
126
125
127
248
50
126
125
127
248
50
126
125
127
248
50
126
125
127
248
50
126
125
127
248
51
126
126
127
248
52
127
126
127
248
55
128
128
127
248
59
129
130
128
248
61
130
131
128
248
49
131
133
129
248
51
132
134
129
248
51
132
134
129
248
52
133
134
129
248
51
132
134
129
248
50
132
133
129
248
48
131
132
129
248
59
129
130
128
248
56
128
128
128
248
51
126
126
127
248
63
125
124
126
248
63
125
124
126
248
63
125
124
126
248
63
125
124
126
248
63
125
124
126
248
63
125
124
126
248
16253
124
126
248
48
125
125
126
248
48
125
125
126
248
49
126
125
126
248
50
126
125
127
248
50
126
125
127
248
50
126
125
127
248
50
126
125
127
248
50
126
125
127
248
50
32381
127
248
50
126
125
127
248
50
126
125
127
248
50
126
32127
248
51
126
126
127
248
51
126
126
127
248
51
126
126
127
248
51
126
126
127
248
51
126
32383
248
51
126
126
127
248
13695
127
127
248
57
128
129
128
248
15233
130
128
248
60
130
130
128
248
59
129
130
128
248
56
128
128
128
248
52
127
126
127
248
51
126
126
127
248
51
126
126
127
248
51
126
126
127
248
51
126
126
127
248
51
126
126
127
64627
31
7
33
48
255
30
31
0
248
51
126
126
127
248
51
126
126
127
248
51
126
126
127
250
31232
248
13182
126
127
248
49
125
125
127
248
57
127
129
129
248
53
136
143
134
248
51
36246
136
249
72
79
248
61
135
139
131
248
52
127
126
127
248
62
32123
126
248
63
125
124
126
248
49
126
125
126
248
49
126
125
126
248
49
126
125
126
248
49
126
125
126
248
12670
125
126
248
50
126
125
127
248
50
126
32127
248
12926
125
127
248
50
126
125
127
248
50
32381
127
248
50
126
125
127
248
13182
126
127
248
52
127
126
127
248
55
128
32895
248
59
129
130
128
248
61
130
131
128
248
49
131
133
129
248
51
132
134
129
248
51
132
134
129
248
52
133
134
129
248
51
132
34433
248
50
132
133
129
248
48
131
33921
248
60
130
130
128
248
56
128
128
128
248
51
126
126
127
248
49
125
125
127
248
63
125
124
126
248
16253
124
126
248
63
125
124
126
248
63
125
124
126
248
63
125
124
126
248
16253
124
126
248
48
125
32126
248
48
125
125
126
248
50
126
125
127
248
50
126
125
127
248
12926
125
127
248
50
126
125
127
248
12926
125
127
248
50
32381
127
248
50
32381
127
248
50
126
125
127
248
50
126
125
127
248
50
126
125
127
248
13182
126
127
248
51
126
126
127
248
13182
126
127
248
13182
126
127
248
51
126
126
127
248
51
32382
127
63541
127
127
127
248
57
128
129
128
248
59
129
130
128
248
60
130
33408
248
59
129
130
128
248
56
128
128
128
248
13695
127
127
248
51
126
126
127
248
13182
126
127
248
51
32382
127
248
51
126
126
127
248
51
126
126
127
248
13182
126
127
248
51
126
126
127
248
13182
126
127
248
51
126
126
127
248
49
125
125
127
248
14719
129
129
248
51
135
142
134
248
51
141
150
136
249
72
79
248
48
136
140
132
248
53
127
127
127
252
115
31
7
33
48
248
15997
123
126
65310
31
0
248
16253
124
126
248
49
126
125
126
250
122
0
248
49
126
125
126
248
12670
125
126
248
49
126
125
126
248
49
126
125
126
248
49
126
125
126
248
50
126
125
127
248
50
126
125
127
248
50
126
125
127
248
12926
125
127
248
50
126
125
127
248
13182
126
127
248
52
127
126
127
248
55
128
128
127
248
58
129
129
128
248
61
130
131
128
248
48
131
132
129
248
51
132
134
129
248
13188
134
129
248
52
8750721
248
51
132
134
129
63538
132
133
129
248
48
131
132
129
248
15746
131
128
248
14464
128
128
248
51
126
126
127
248
12669
125
127
248
63
125
124
126
248
63
125
124
126
248
63
125
124
126
248
63
125
124
126
248
63
125
124
126
248
63
125
124
126
248
48
125
125
126
248
12413
125
126
248
50
126
125
127
248
50
126
125
127
248
50
126
125
127
248
50
126
125
127
248
12926
125
127
248
12926
125
127
248
12926
125
127
248
50
126
125
127
248
50
126
125
127
248
50
126
125
127
248
50
126
125
127
248
51
126
126
127
248
13182
126
127
248
51
126
126
127
248
51
126
126
127
248
51
126
126
127
248
53
127
127
127
248
57
128
129
128
248
59
129
130
128
248
61
130
131
128
248
15233
130
128
248
57
128
129
128
248
53
127
127
127
248
51
126
126
127
248
51
126
126
127
248
51
32382
127
248
51
126
126
127
248
51
126
32383
248
51
126
126
127
248
51
126
126
127
248
51
126
126
127
248
51
126
126
127
248
49
125
125
127
248
14463
128
129
248
49
135
141
133
248
51
141
150
136
249
72
79
248
12680
141
132
248
54
128
127
127
248
62
32123
126
248
63
125
124
126
248
49
126
125
126
248
49
126
125
126
248
49
126
125
126
248
49
126
125
126
248
49
126
125
126
248
49
126
125
126
248
12926
125
127
248
50
126
125
127
252
115
31
7
33
48
248
12926
125
127
255
30
31
0
248
50
126
32127
248
50
126
125
127
250
122
0
248
13182
126
127
248
13439
126
127
248
14208
32895
248
58
129
129
128
248
61
130
131
128
248
48
131
132
129
248
13188
134
129
248
51
132
134
129
248
13445
134
129
248
52
133
134
129
248
12932
133
129
248
48
33668
129
248
15746
131
128
248
14720
129
128
248
52
127
126
127
248
12669
32127
248
63
125
124
126
248
63
8223870
248
63
125
124
126
248
63
125
124
126
248
16253
124
126
248
63
32124
126
248
16253
31870
248
48
32125
126
248
12670
125
126
248
50
126
125
127
248
50
8289663
248
50
126
125
127
248
50
126
125
127
248
50
126
125
127
248
50
126
125
127
248
12926
32127
248
12926
125
127
248
50
126
125
127
248
12926
125
127
248
13182
32383
248
51
126
126
127
248
13182
32383
248
51
126
126
127
248
51
126
126
127
248
53
127
127
127
248
57
128
129
128
248
59
129
33408
248
15490
130
128
248
59
129
130
128
248
14720
129
128
248
53
127
32639
248
51
126
126
127
248
51
126
126
127
248
51
126
126
127
248
51
32382
127
248
51
126
126
127
248
51
126
126
127
248
51
126
32383
248
51
126
32383
248
51
32382
127
248
49
125
125
127
248
53
126
127
128
248
63
134
140
133
248
51
141
150
136
249
72
79
248
52
137
142
133
248
55
128
128
127
248
62
125
123
126
248
63
125
124
126
248
49
126
125
126
248
49
126
125
126
248
49
32381
126
248
49
126
125
126
248
49
126
125
126
248
49
32381
126
248
50
126
125
127
248
50
126
32127
248
12926
32127
248
50
32381
127
248
50
126
125
127
248
12926
125
127
248
52
127
126
127
248
54
32895
127
248
58
129
129
128
248
61
130
131
128
248
48
33668
129
248
50
132
133
129
248
51
132
134
129
252
115
31
7
33
48
255
30
31
0
248
52
133
134
129
248
52
133
134
129
248
50
132
133
33274
122
0
248
12675
133
129
248
61
130
131
128
248
57
128
129
128
248
53
127
32639
248
49
125
125
127
248
63
125
124
126
248
63
125
124
126
248
63
32124
126
248
63
125
124
126
248
63
125
124
126
248
63
32124
126
248
63
125
124
126
248
49
125
125
127
248
50
126
125
127
248
50
32381
127
248
50
126
125
127
248
50
126
125
127
248
50
126
125
127
248
50
126
125
127
248
50
32381
127
248
50
126
125
127
248
50
126
125
127
248
50
126
125
127
248
51
126
32383
248
51
126
126
127
248
51
126
126
127
248
51
32382
127
248
51
32382
127
248
51
32382
127
248
53
127
127
127
248
56
32896
128
248
59
129
130
128
248
60
33410
128
248
59
129
130
128
248
57
128
129
128
248
53
127
127
127
248
51
126
126
127
248
51
32382
127
248
51
32382
127
248
51
126
126
127
248
51
126
126
127
248
51
126
126
127
248
51
126
126
127
248
51
32382
127
248
51
126
126
127
248
49
125
125
127
248
53
126
127
128
248
60
133
35461
248
49
140
149
136
249
72
79
248
53
137
143
133
248
57
129
129
127
248
62
125
123
126
248
63
125
124
126
248
49
32381
126
248
49
126
125
126
248
49
32381
126
248
49
126
125
126
248
49
126
125
126
248
49
126
125
126
248
49
32381
126
248
50
126
32127
248
50
126
125
127
248
50
126
125
127
248
50
126
125
127
248
50
126
125
127
248
52
127
126
127
248
53
127
32639
248
58
33153
128
248
61
130
131
128
248
63
131
132
128
248
50
132
133
129
248
51
132
134
129
248
52
133
34433
248
52
133
134
129
248
51
132
34433
248
49
131
34177
248
61
130
131
128
248
57
32897
128
248
53
127
32639
248
50
126
125
127
248
63
8223870
248
63
125
31870
252
115
31
7
33
48
248
63
125
124
126
255
7711
0
248
63
32124
126
248
63
125
124
126
250
122
0
248
63
125
124
126
248
63
125
124
126
248
48
125
125
126
248
49
125
125
127
248
50
126
125
127
248
50
126
125
127
248
50
32381
127
248
50
126
125
127
248
50
126
125
127
248
50
32381
127
248
50
126
125
127
248
50
126
32127
248
50
126
125
127
248
50
126
125
127
248
51
126
126
127
248
51
126
126
127
248
51
126
126
127
248
51
126
126
127
248
51
126
126
127
248
52
127
32383
248
56
128
32896
248
59
129
130
128
248
61
130
33664
248
59
129
33408
248
57
128
33152
248
53
127
127
127
248
51
126
32383
248
51
126
126
127
248
51
126
126
127
248
51
126
126
127
248
51
126
32383
248
51
126
126
127
248
51
126
126
127
248
51
126
126
127
248
51
126
126
127
248
50
126
125
127
248
53
126
127
128
248
57
132
137
132
248
49
140
149
136
249
72
79
248
57
138
145
134
248
59
129
130
128
248
62
125
31614
248
63
125
124
126
248
49
126
125
126
248
49
126
125
126
248
49
126
125
126
248
49
126
125
126
248
49
126
125
126
248
49
126
125
126
248
49
126
125
126
248
50
126
32127
248
50
126
125
127
248
50
126
125
127
248
50
126
32127
248
50
126
32127
248
51
126
32383
248
53
127
127
127
248
58
129
129
128
248
61
130
131
128
248
48
131
132
129
248
50
132
133
129
248
51
132
134
129
248
52
133
134
129
248
52
133
134
129
248
51
132
134
129
248
49
131
133
129
248
61
130
131
128
248
58
129
129
128
248
53
127
127
127
248
50
126
125
127
248
63
125
124
126
248
63
125
124
126
248
63
125
124
126
248
63
125
124
126
248
63
125
124
126
248
63
125
124
126
248
63
125
31870
248
48
125
125
126
248
50
126
125
127
248
50
126
125
127
248
50
126
125
127
248
50
126
125
127
252
115
31
7
33
48
248
50
126
32127
255
30
31
0
248
50
126
125
127
248
50
126
125
127
250
122
0
248
50
126
125
127
248
50
126
125
127
248
50
126
125
127
248
50
126
125
127
248
51
126
32383
248
51
126
126
127
248
51
126
126
127
248
51
126
126
127
248
51
126
126
127
248
52
127
126
127
248
56
128
128
128
248
59
129
130
128
248
61
130
131
128
248
59
129
130
128
248
58
129
129
128
248
53
127
127
127
248
51
126
126
127
248
51
126
32383
248
51
126
126
127
248
51
126
126
127
248
51
126
126
127
248
51
126
126
127
248
51
126
126
127
248
51
126
126
127
248
51
126
126
127
248
50
126
125
127
248
52
126
126
128
248
56
132
136
132
248
49
140
149
136
249
72
79
248
58
139
37254
248
61
130
131
128
248
62
125
123
126
248
63
125
31870
248
49
126
125
126
248
49
126
125
126
248
49
126
125
126
248
49
126
125
126
248
49
126
32126
248
49
126
125
126
248
50
126
125
127
248
50
126
125
127
248
50
126
125
127
248
50
126
125
127
248
50
126
125
127
248
50
126
125
127
248
51
126
126
127
248
53
127
127
127
248
58
129
129
128
248
60
130
130
128
248
63
131
132
128
248
50
132
133
129
248
51
132
134
129
248
52
133
134
129
248
52
133
134
129
248
51
132
134
129
248
49
131
133
129
248
62
130
131
129
248
58
129
129
128
248
53
127
127
127
248
50
126
125
127
248
63
125
124
126
248
63
125
124
126
248
63
125
124
126
248
63
125
124
126
248
63
125
124
126
248
63
125
124
126
248
63
125
124
126
248
48
125
32126
248
50
126
125
127
248
50
126
125
127
248
50
126
125
127
248
50
126
125
127
248
50
126
125
127
248
50
126
125
127
248
50
126
125
127
248
50
126
125
127
248
50
126
125
127
248
50
126
125
127
248
50
126
125
127
248
51
126
126
127
248
51
126
126
127
248
51
126
126
127
248
51
126
126
127
252
29471
7
33
48
255
30
31
0
248
51
126
126
127
248
52
127
126
127
248
56
128
128
128
64122
0
248
59
129
130
128
248
60
130
130
128
248
59
129
130
128
248
58
129
129
128
248
53
127
127
127
248
51
126
126
127
248
51
126
126
127
248
51
126
126
127
248
51
126
126
127
248
51
126
126
127
248
51
126
126
127
248
51
126
126
127
248
51
126
126
127
248
51
126
126
127
248
50
126
125
127
248
52
126
126
128
248
53
131
135
131
248
48
140
148
136
249
72
79
248
60
139
146
135
248
61
130
33664
248
63
125
124
126
248
63
125
124
126
248
49
126
125
126
248
49
126
125
126
248
49
126
125
126
248
49
126
125
126
248
49
126
125
126
248
49
126
125
126
248
49
126
125
126
248
49
126
125
126
248
50
126
125
127
248
50
126
125
127
248
50
126
125
127
248
50
126
125
127
248
51
126
126
127
248
53
127
127
127
248
58
129
129
128
248
60
130
130
128
248
63
131
132
128
248
50
132
133
129
248
51
132
134
129
248
52
133
134
129
248
52
133
134
129
248
51
132
134
129
248
50
132
133
129
248
63
130
132
129
248
58
129
129
128
248
53
127
32639
248
50
126
125
127
248
63
125
124
126
248
63
125
124
126
248
63
125
124
126
248
63
125
124
126
248
63
125
124
126
248
63
125
124
126
248
63
125
124
126
248
48
125
125
126
248
49
126
125
126
248
50
126
125
127
248
50
126
125
127
248
50
126
125
127
248
50
126
125
127
248
50
126
125
127
248
50
126
125
127
248
50
126
125
127
248
50
126
125
127
248
50
126
125
127
248
50
126
125
127
248
51
126
126
127
248
51
126
126
127
248
51
126
126
127
248
51
126
126
127
248
51
126
126
127
248
52
127
126
127
248
55
128
128
127
248
59
129
130
128
248
60
130
130
128
248
1015186048
248
58
129
129
128
248
53
127
127
127
248
51
126
126
127
248
50
126
125
127
252
115
7943
33
48
248
51
126
126
127
65310
31
0
248
51
126
126
127
248
51
126
126
127
250
122
0
248
51
126
126
127
248
51
126
126
127
248
51
126
126
127
248
51
126
126
127
248
50
126
125
127
248
51
125
126
128
248
51
130
134
131
248
63
139
148
136
249
72
79
248
62
140
147
135
248
48
131
132
129
248
63
125
124
126
248
63
125
124
126
248
49
126
125
126
248
49
126
125
126
248
49
126
125
126
248
49
126
125
126
248
49
126
125
126
248
49
126
125
126
248
49
126
125
126
248
50
126
125
127
248
50
126
125
127
248
50
126
125
127
248
50
126
125
127
248
50
126
125
127
248
51
126
126
127
248
53
127
127
127
248
56
128
129
127
248
60
130
130
128
248
63
131
132
128
248
50
132
133
129
248
51
132
134
129
248
51
132
134
129
248
52
133
134
129
248
51
132
134
129
248
50
132
34177
248
63
130
132
129
248
59
129
130
128
248
53
127
127
127
248
50
126
32127
248
63
125
124
126
248
63
125
124
126
248
63
125
124
126
248
63
125
124
126
248
63
125
124
126
248
63
125
124
126
248
63
125
124
126
248
48
125
125
126
248
49
125
125
127
248
50
126
125
127
248
50
126
125
127
248
50
126
125
127
248
50
126
125
127
248
50
126
125
127
248
50
126
125
127
248
50
126
125
127
248
50
126
125
127
248
50
126
125
127
248
50
126
125
127
248
51
126
126
127
248
51
126
126
127
248
51
126
126
127
248
51
126
126
127
248
51
126
126
127
248
51
126
126
127
248
55
128
128
127
248
59
129
130
128
248
60
130
130
128
248
60
130
130
128
248
58
129
129
128
248
55
127
128
128
248
51
126
126
127
248
51
126
126
127
248
51
126
126
127
248
51
126
126
127
248
51
126
126
127
248
51
126
126
127
248
51
126
126
127
248
51
126
126
127
248
51
126
126
127
248
50
126
125
127
248
49
125
125
127
248
50
130
133
131
252
115
31
7
33
48
248
62
139
147
136
255
30
31
0
249
72
79
248
63
140
38023
248
50
132
133
129
250
122
0
248
48
126
124
126
248
63
125
124
126
248
49
126
125
126
248
49
126
125
126
248
49
126
125
126
248
49
126
125
126
248
49
126
125
126
248
49
126
125
126
248
49
126
125
126
248
50
126
32127
248
50
126
125
127
248
50
126
125
127
248
50
126
125
127
248
50
126
125
127
248
51
126
126
127
248
53
127
127
127
248
55
128
128
127
248
60
130
130
128
248
63
131
132
128
248
49
131
133
129
248
51
132
134
129
248
51
132
134
129
248
52
133
134
129
248
51
132
134
129
248
50
132
133
129
248
63
130
132
129
248
59
129
130
128
248
54
127
128
127
248
51
126
126
127
248
63
125
124
126
248
63
125
124
126
248
63
125
124
126
248
63
125
124
126
248
63
125
124
126
248
63
125
124
126
248
63
125
124
126
248
48
125
125
126
248
49
126
125
126
248
50
126
125
127
248
50
126
125
127
248
50
126
125
127
248
50
126
125
127
248
50
126
125
127
248
50
126
125
127
248
50
126
125
127
248
50
126
125
127
248
50
126
125
127
248
50
126
125
127
248
51
126
126
127
248
51
126
126
127
248
51
126
126
127
248
51
126
126
127
248
51
126
126
127
248
51
126
126
127
248
54
127
128
127
248
58
129
129
128
248
60
130
130
128
248
60
130
130
128
248
59
129
130
128
248
56
128
128
128
248
51
126
126
127
248
51
126
126
127
248
51
126
126
127
248
51
126
126
127
248
51
126
32383
248
51
126
126
127
248
51
126
126
127
248
51
126
126
127
248
51
126
126
127
248
50
126
125
127
248
49
125
125
127
248
63
129
132
130
248
59
138
146
135
249
72
79
248
48
140
148
136
248
53
132
135
130
248
48
126
124
126
248
63
125
124
126
248
48
126
124
126
248
49
126
125
126
248
49
126
125
126
248
49
126
125
126
248
49
126
125
126
248
49
126
125
126
252
29471
7
33
48
255
30
31
0
248
49
126
125
126
248
50
126
125
127
248
50
126
125
127
250
122
0
248
50
126
125
127
248
50
126
125
127
248
50
126
125
127
248
51
126
126
127
248
53
127
127
127
248
14208
128
127
248
59
129
130
128
248
63
131
132
128
248
49
131
133
129
248
51
132
134
129
248
51
132
134
129
248
52
133
134
129
248
51
132
134
129
248
50
132
133
129
248
48
131
132
129
248
59
129
130
128
248
55
127
128
128
248
51
126
126
127
248
63
125
124
126
248
63
125
124
126
248
63
125
124
126
248
63
125
124
126
248
63
125
124
126
248
63
125
124
126
248
63
125
124
126
248
63
125
124
126
248
48
125
125
126
248
49
126
125
126
248
50
126
125
127
248
50
126
125
127
248
50
126
125
127
248
50
126
125
127
248
50
126
125
127
248
50
126
125
127
248
50
126
125
127
248
50
126
125
127
248
50
126
125
127
248
51
126
126
127
248
51
126
126
127
248
51
126
126
127
248
51
126
126
127
248
51
126
126
127
248
51
126
126
127
248
53
127
127
127
248
58
129
129
128
248
60
130
130
128
248
60
130
33408
248
59
129
130
128
248
56
128
128
128
248
51
126
126
127
248
51
126
126
127
248
51
126
126
127
248
51
126
126
127
248
51
126
126
127
248
51
126
126
127
248
51
126
126
127
248
51
126
126
127
248
51
126
126
127
248
50
126
125
127
248
49
125
125
127
248
62
129
131
130
248
58
138
145
135
248
49
140
38280
249
72
79
248
55
133
136
130
248
49
126
125
126
248
62
125
123
126
248
48
126
124
126
248
49
126
125
126
248
49
126
125
126
248
49
126
125
126
248
49
126
125
126
248
49
126
125
126
248
49
126
125
126
248
49
126
125
126
248
50
126
125
127
248
50
126
125
127
248
50
126
125
127
248
50
126
125
127
248
51
126
126
127
248
53
127
127
127
248
55
128
128
127
248
59
129
130
128
252
115
31
7
33
48
248
62
131
131
128
255
7711
0
248
49
131
133
129
248
51
132
134
129
250
122
0
248
51
132
134
129
248
52
133
134
129
248
51
132
134
129
248
50
132
133
129
248
12419
132
129
248
59
129
130
128
248
56
128
128
128
248
51
126
126
127
248
48
125
124
127
248
16253
31870
248
63
125
124
126
248
16253
124
126
248
63
125
124
126
248
63
125
124
126
248
63
125
124
126
248
48
125
125
126
248
49
125
125
127
248
50
126
125
127
248
50
32381
127
248
50
126
125
127
248
50
126
125
127
248
50
126
125
127
248
50
126
125
127
248
50
126
125
127
248
50
126
125
127
248
50
126
125
127
248
12926
125
127
248
51
126
126
127
248
51
126
126
127
248
51
126
126
127
248
51
126
126
127
248
51
126
126
127
248
51
126
126
127
248
53
127
127
127
248
58
129
129
128
248
60
130
130
128
248
60
130
130
128
248
59
129
130
128
248
56
128
128
128
248
52
127
126
127
248
51
126
126
127
248
51
126
126
127
248
51
126
126
127
248
51
126
126
127
248
51
126
126
127
248
51
126
126
127
248
51
126
32383
248
51
126
126
127
248
51
126
126
127
248
12669
125
127
248
60
128
130
130
248
57
137
145
135
248
50
141
149
136
249
72
79
248
57
134
137
130
248
49
8289662
248
62
125
123
126
248
63
125
124
126
248
49
126
125
126
248
49
126
125
126
248
49
126
125
126
248
49
32381
126
248
49
126
125
126
248
49
126
125
126
248
49
126
125
126
248
50
126
125
127
248
12926
32127
248
50
126
125
127
248
50
126
125
127
248
51
126
126
127
248
52
32638
127
248
55
128
128
127
248
59
129
130
128
248
61
130
131
128
248
49
131
133
129
248
13188
134
129
248
51
132
134
129
248
52
133
134
129
248
51
33926
129
248
50
132
133
129
248
48
131
132
129
248
59
129
130
128
248
56
128
128
128
252
115
31
7
33
48
248
51
126
126
127
255
30
31
0
248
63
125
124
126
248
63
125
124
126
250
122
0
248
63
125
124
126
248
16253
124
126
248
63
125
124
126
248
63
125
124
126
248
63
125
124
126
248
48
125
125
126
248
49
126
32126
248
50
126
125
127
248
50
126
32127
248
50
126
125
127
248
50
126
125
127
248
50
126
125
127
248
50
126
32127
248
50
126
125
127
248
12926
125
127
248
50
126
32127
248
50
126
125
127
248
51
126
126
127
248
51
126
126
127
248
51
32382
127
248
51
126
126
127
248
51
126
126
127
248
51
126
126
127
248
53
127
127
127
248
58
129
129
128
248
60
130
130
128
248
60
130
130
128
248
59
129
130
128
248
56
32896
128
248
13439
126
127
248
51
126
126
127
248
51
126
126
127
248
51
126
126
127
248
51
126
126
127
248
13182
126
127
248
51
126
32383
248
51
126
126
127
248
13182
126
127
248
51
126
126
127
248
49
125
125
127
248
59
128
130
129
248
55
136
144
135
248
50
141
38280
249
72
79
248
15238
138
131
248
13183
126
126
248
15997
123
126
248
63
125
124
126
248
49
126
125
126
248
49
32381
126
248
49
126
125
126
248
49
126
125
126
248
49
126
32126
248
50
126
125
127
248
50
126
125
127
248
50
126
125
127
248
50
32381
127
248
50
126
125
127
248
50
126
125
127
248
51
126
126
127
248
13439
126
127
248
55
128
128
127
248
59
129
33408
248
15746
131
128
248
49
131
133
129
248
51
132
134
129
248
13188
134
129
248
52
133
134
129
248
51
132
134
129
248
50
33925
129
248
48
131
132
129
248
59
129
33408
248
14464
128
128
248
51
126
126
127
248
12669
125
127
248
63
125
124
126
248
16253
124
126
248
63
125
124
126
248
63
125
124
126
248
63
125
124
126
248
63
125
124
126
248
63
125
124
126
248
49
32125
127
248
50
126
125
127
252
29471
7
33
48
255
30
31
0
248
50
32381
127
248
50
126
125
127
248
50
32381
127
250
122
0
248
50
126
125
127
248
50
32381
127
248
12926
32127
248
50
126
125
127
248
12926
125
127
248
50
126
125
127
248
50
126
125
127
248
51
126
126
127
248
13182
126
127
248
51
126
126
127
248
51
126
126
127
248
51
126
126
127
248
53
127
127
127
248
57
128
129
128
248
59
129
130
128
248
60
130
130
128
248
59
129
130
128
248
56
128
128
128
248
52
127
126
127
248
13182
126
127
248
13182
126
127
248
13182
126
127
248
51
126
126
127
248
13182
126
127
248
51
126
126
127
248
51
32382
127
248
51
126
126
127
248
13182
126
127
248
12669
32127
248
57
127
129
129
248
13704
36742
248
13197
150
136
249
72
79
248
61
135
139
131
248
52
127
126
127
248
62
125
123
126
248
63
125
124
126
248
49
126
125
126
248
49
126
125
126
248
49
126
125
126
248
49
126
125
126
248
49
32381
126
248
49
126
32126
248
12670
125
126
248
50
126
125
127
248
12926
125
127
248
12926
125
127
248
50
126
125
127
248
51
126
126
127
248
52
127
126
127
248
55
128
128
127
248
58
129
129
128
248
15746
131
128
248
49
131
133
129
248
51
132
134
129
248
13188
134
129
248
52
133
134
129
248
13188
134
129
248
50
132
133
129
248
48
131
132
129
248
60
130
130
128
248
14464
128
128
248
13182
126
127
248
49
125
125
127
248
63
125
124
126
248
63
125
124
126
248
63
125
124
126
248
63
125
124
126
248
63
125
124
126
248
63
125
124
126
248
16253
124
126
248
12669
125
127
248
12926
125
127
248
12926
125
127
248
50
126
125
127
248
50
126
125
127
248
50
126
125
127
248
50
126
125
127
248
50
126
125
127
248
50
126
125
127
248
50
126
125
127
248
50
126
125
127
248
50
126
125
127
252
115
31
7
33
48
248
13182
126
32767
30
31
0
248
51
126
126
127
248
51
126
126
127
250
122
0
248
51
126
126
127
248
51
126
126
127
248
53
127
127
127
248
57
128
129
128
248
59
129
130
128
248
60
130
130
128
248
59
129
130
128
248
57
128
129
128
248
13695
127
127
248
51
126
126
127
248
51
126
126
127
248
51
126
126
127
248
51
126
126
127
248
51
126
126
127
248
51
126
126
127
248
13182
126
127
248
51
126
126
127
248
51
126
126
127
248
49
125
125
127
248
14463
128
129
248
12935
141
134
248
51
141
150
136
249
72
79
248
12424
140
132
248
54
128
127
127
248
15997
123
126
248
63
125
124
126
248
12670
125
126
248
49
126
125
126
248
49
126
125
126
248
49
126
125
126
248
49
126
125
126
248
49
126
125
126
248
12926
125
127
248
50
126
125
127
248
12926
125
127
248
12926
125
127
248
50
126
125
127
248
51
126
126
127
248
52
127
126
127
248
14208
128
127
248
58
129
129
128
248
61
130
131
128
248
12419
132
129
248
51
132
134
129
248
51
132
134
129
248
52
133
134
129
248
13188
134
129
248
50
132
133
129
248
12419
132
129
248
61
33411
128
248
56
128
128
128
248
52
127
126
127
248
49
125
125
127
248
63
125
124
126
248
63
125
124
126
248
63
125
124
126
248
63
125
124
126
248
16253
124
126
248
63
125
31870
248
63
125
124
126
248
48
125
125
126
248
12926
125
127
248
50
32381
127
248
50
126
125
127
248
50
32381
127
248
50
126
125
127
248
50
126
125
127
248
50
126
125
127
248
12926
125
127
248
50
126
125
127
248
50
126
125
127
248
50
126
125
127
248
13182
126
127
248
51
32382
127
248
51
126
126
127
248
13182
126
127
248
51
126
126
127
248
13695
32639
248
57
128
129
128
248
15233
130
128
248
61
130
131
128
248
59
129
130
128
252
115
31
7
33
48
248
14720
33152
255
30
31
0
248
53
32639
127
248
51
32382
127
250
122
0
248
51
126
126
127
248
51
126
126
127
248
51
32382
127
248
51
126
126
127
248
51
126
126
127
248
51
126
126
127
248
51
126
126
127
248
51
32382
127
248
49
125
125
127
248
55
127
32896
248
63
34444
133
248
51
141
150
136
249
72
79
248
50
34958
132
248
55
32896
127
248
62
125
123
126
248
63
125
124
126
248
49
32381
126
248
49
126
125
126
248
49
126
125
126
248
49
126
125
126
248
49
126
125
126
248
49
126
125
126
248
49
126
125
126
248
50
126
125
127
248
50
126
125
127
248
50
126
32127
248
50
126
125
127
248
51
126
126
127
248
52
127
126
127
248
54
128
127
127
248
58
129
33152
248
61
130
131
128
248
48
33668
129
248
51
132
134
129
248
51
132
134
129
248
52
133
134
129
248
52
133
134
129
248
13188
134
129
248
49
131
34177
248
61
130
131
128
248
57
128
33152
248
52
127
126
127
248
49
125
125
127
248
63
125
124
126
248
63
125
124
126
248
63
125
124
126
248
63
125
124
126
248
63
125
31870
248
63
125
124
126
248
63
32124
126
248
48
125
32126
248
49
126
125
126
248
50
126
125
127
248
50
126
125
127
248
50
126
32127
248
50
32381
127
248
50
126
125
127
248
50
126
32127
248
50
126
125
127
248
50
126
125
127
248
50
126
125
127
248
50
126
125
127
248
51
32382
127
248
51
126
126
127
248
51
32382
127
248
51
126
126
127
248
51
126
126
127
248
53
32639
127
248
57
128
129
128
248
59
129
33408
248
60
130
130
128
248
59
129
130
128
248
57
128
129
128
248
53
32639
127
248
51
126
126
127
248
51
126
126
127
248
51
126
126
127
248
51
126
126
127
248
51
126
126
127
248
51
32382
127
248
51
126
126
127
248
51
126
126
127
248
51
126
8290300
115
31
7
33
48
255
30
31
0
248
49
125
125
127
248
53
126
127
128
248
62
134
139
34298
122
0
248
51
141
150
136
249
72
79
248
53
137
143
133
248
55
32896
127
248
62
125
123
126
248
63
125
124
126
248
49
126
125
126
248
49
126
125
126
248
49
126
32126
248
49
126
125
126
248
49
126
32126
248
49
126
125
126
248
50
32381
127
248
50
126
125
127
248
50
126
125
127
248
50
126
125
127
248
50
126
125
127
248
50
126
32127
248
52
32638
127
248
54
128
127
127
248
58
33153
128
248
61
130
33664
248
48
131
132
129
248
50
132
133
129
248
51
132
134
129
248
52
133
134
129
248
52
133
134
129
248
51
132
34433
248
49
131
133
129
248
61
130
33664
248
57
128
129
128
248
53
127
127
127
248
49
125
125
127
248
63
125
124
126
248
63
125
124
126
248
63
125
124
126
248
63
125
31870
248
63
125
124
126
248
63
125
124
126
248
63
125
124
126
248
49
125
32127
248
49
125
125
127
248
50
126
32127
248
50
126
32127
248
50
126
32127
248
50
126
125
127
248
50
126
125
127
248
50
126
32127
248
50
126
125
127
248
50
32381
127
248
50
126
32127
248
50
126
125
127
248
51
126
32383
248
51
126
126
127
248
51
126
126
127
248
51
126
32383
248
51
126
32383
248
53
127
127
127
248
56
128
128
128
248
15233
130
128
248
60
130
33408
248
59
129
33408
248
57
128
129
128
248
53
127
32639
248
51
126
126
127
248
51
126
126
127
248
51
126
126
127
248
51
126
32383
248
51
126
32383
248
51
126
126
127
248
51
126
126
127
248
51
126
126
127
248
51
126
126
127
248
49
125
125
127
248
53
126
127
128
248
59
133
138
132
248
49
140
149
136
249
72
79
248
55
138
36997
248
58
129
129
128
248
62
125
123
126
248
63
125
124
126
248
49
126
125
126
248
49
126
125
126
252
115
31
7
33
48
248
49
126
125
32511
30
31
0
248
49
126
125
126
248
49
126
125
126
250
31232
248
49
126
125
126
248
49
126
32126
248
50
126
125
127
248
50
126
125
127
248
50
126
32127
248
50
126
125
127
248
50
126
32127
248
51
126
126
127
248
53
127
127
127
248
58
129
129
128
248
61
130
131
128
248
48
131
132
129
248
50
132
133
129
248
51
132
134
129
248
52
133
134
129
248
52
133
134
129
248
51
132
34433
248
49
131
133
129
248
61
130
33664
248
57
128
129
128
248
53
127
127
127
248
50
126
32127
248
63
125
124
126
248
63
125
124
126
248
63
125
124
126
248
63
125
124
126
248
63
125
124
126
248
63
125
124
126
248
48
125
125
126
248
48
125
32126
248
50
126
32127
248
50
126
125
127
248
50
126
32127
248
50
126
125
127
248
50
126
125
127
248
50
126
125
127
248
50
126
125
127
248
50
126
125
127
248
50
126
125
127
248
50
126
32127
248
50
126
125
127
248
51
126
126
127
248
51
126
126
127
248
51
126
126
127
248
51
126
126
127
248
51
126
126
127
248
52
127
126
127
248
56
128
128
128
248
59
129
130
128
248
61
130
131
128
248
59
129
130
128
248
57
128
129
128
248
53
127
127
127
248
51
126
126
127
248
51
126
126
127
248
51
126
126
127
248
51
126
126
127
248
51
126
126
127
248
51
126
126
127
248
51
126
126
127
248
51
126
126
127
248
51
126
126
127
248
50
126
125
127
248
52
126
126
128
248
57
132
137
132
248
49
140
149
136
249
72
79
248
57
138
145
134
248
59
129
130
128
248
62
125
123
126
248
63
125
124
126
248
49
126
125
126
248
49
126
125
126
248
49
126
125
126
248
49
126
125
126
248
49
126
125
126
248
49
126
125
126
248
50
126
125
127
248
50
126
125
127
248
50
126
125
127
248
50
126
125
127
248
50
126
125
127
248
50
126
125
127
252
115
31
7
33
48
248
51
126
126
127
255
30
31
0
248
53
127
127
127
248
58
129
129
128
250
122
0
248
61
130
131
128
248
48
131
132
129
248
50
132
133
129
248
51
132
134
129
248
52
133
134
129
248
52
133
134
129
248
51
132
134
129
248
49
131
133
129
248
62
130
131
129
248
58
129
129
128
248
53
127
127
127
248
50
126
125
127
248
63
125
124
126
248
63
125
124
126
248
63
125
124
126
248
63
125
124
126
248
63
125
124
126
248
63
125
124
126
248
63
125
124
126
248
48
125
125
126
248
49
126
125
126
248
50
126
125
127
248
50
126
125
127
248
50
126
125
127
248
50
126
125
127
248
50
126
125
127
248
50
126
125
127
248
50
126
125
127
248
50
126
125
127
248
50
126
125
127
248
50
126
125
127
248
51
126
126
127
248
51
126
126
127
248
51
126
126
127
248
51
126
126
127
248
51
126
126
127
248
52
127
126
127
248
56
128
128
128
248
59
129
130
128
248
61
130
131
128
248
59
129
130
128
248
58
129
129
128
248
53
127
127
127
248
51
126
126
127
248
51
126
126
127
248
51
126
126
127
248
51
126
126
127
248
51
126
126
127
248
51
126
126
127
248
51
126
126
127
248
51
126
126
127
248
51
126
126
127
248
50
126
125
127
248
52
126
126
128
248
55
131
136
132
248
49
140
149
136
249
72
79
248
59
9147014
248
61
130
131
128
248
63
125
124
126
248
63
125
124
126
248
49
126
125
126
248
49
126
125
126
248
49
126
125
126
248
49
126
125
126
248
49
126
125
126
248
49
126
125
126
248
49
126
125
126
248
49
126
125
126
248
50
126
125
127
248
50
126
125
127
248
50
126
125
127
248
50
126
125
127
248
51
126
126
127
248
53
127
127
127
248
58
129
129
128
248
60
130
130
128
248
63
131
132
128
248
50
132
133
129
248
51
132
134
129
248
52
133
134
129
248
52
133
134
129
248
51
132
134
129
248
49
131
133
129
252
29471
7
33
48
255
30
31
0
248
62
130
131
129
248
58
129
129
128
248
53
127
127
127
250
31232
248
50
126
125
127
63551
125
124
126
248
63
125
124
126
248
63
125
124
126
248
63
125
124
126
248
63
125
124
126
248
63
125
124
126
248
63
125
124
126
248
49
125
125
127
248
49
125
125
127
248
50
126
125
127
248
50
126
125
127
248
50
126
125
127
248
50
126
125
127
248
50
126
125
127
248
50
126
125
127
248
50
126
125
127
248
50
126
125
127
248
50
126
125
127
248
50
126
125
127
248
51
126
126
127
248
51
126
126
127
248
51
126
126
127
248
51
126
126
127
248
51
126
126
127
248
52
127
126
127
248
56
128
128
128
248
59
129
130
128
248
60
130
130
128
248
60
130
130
128
248
58
129
129
128
248
53
127
127
127
248
51
126
126
127
248
51
32382
127
248
51
126
126
127
248
51
126
126
127
248
51
126
126
127
248
51
126
126
127
248
51
126
126
127
248
51
126
126
127
248
51
126
126
127
248
50
126
125
127
248
52
126
126
128
248
53
131
135
131
248
48
140
148
136
249
72
79
248
61
139
37767
248
48
131
132
129
248
63
125
124
126
248
63
125
124
126
248
49
126
125
126
248
49
126
125
126
248
49
126
125
126
248
49
126
125
126
248
49
126
125
126
248
49
126
125
126
248
49
126
125
126
248
50
126
125
127
248
50
126
32127
248
50
126
125
127
248
50
126
125
127
248
50
126
125
127
248
51
126
126
127
248
53
127
127
127
248
56
128
129
127
248
60
130
130
128
248
63
131
132
128
248
50
132
133
129
248
51
132
134
129
248
52
133
134
129
248
52
133
134
129
248
51
132
134
129
248
50
132
133
129
248
63
130
132
129
248
58
129
129
128
248
53
127
127
127
248
50
126
125
127
248
63
125
124
126
248
63
125
124
126
248
63
125
124
126
248
63
125
124
126
248
63
125
124
126
248
63
125
124
126
252
115
31
7
33
48
248
63
125
124
126
65310
31
0
248
48
125
125
126
248
49
125
125
127
250
122
0
248
50
126
125
127
248
50
126
125
127
248
50
126
125
127
248
50
126
125
127
248
50
126
125
127
248
50
126
125
127
248
50
126
125
127
248
50
126
125
127
248
50
126
125
127
248
50
126
125
127
248
51
126
126
127
248
51
126
126
127
248
51
126
126
127
248
51
126
126
127
248
51
126
126
127
248
52
127
126
127
248
55
128
128
127
248
59
129
33408
248
60
130
130
128
248
60
130
130
128
248
58
129
129
128
248
54
127
128
127
248
51
126
126
127
248
50
126
125
127
248
51
126
126
127
248
51
126
126
127
248
51
126
126
127
248
51
126
126
127
248
51
126
126
127
248
51
126
126
127
248
51
126
126
127
248
50
126
125
127
248
50
125
126
127
248
51
130
134
131
248
63
139
148
136
249
72
79
248
62
140
37767
248
49
131
133
129
248
63
125
124
126
248
63
125
124
126
248
49
126
125
126
248
49
126
125
126
248
49
126
125
126
248
49
126
125
126
248
49
126
125
126
248
49
126
125
126
248
49
126
125
126
248
50
126
125
127
248
50
126
125
127
248
50
126
125
127
248
50
126
125
127
248
50
126
125
127
248
51
126
126
127
248
53
127
127
127
248
55
128
128
127
248
60
130
130
128
248
63
131
132
128
248
50
132
133
129
248
51
132
134
129
248
52
133
134
129
248
52
133
34433
248
51
132
134
129
248
50
132
34177
248
63
130
132
129
248
59
129
130
128
248
53
127
127
127
248
50
126
125
127
248
63
125
124
126
248
63
125
124
126
248
63
125
124
126
248
63
125
124
126
248
63
125
124
126
248
63
125
124
126
248
63
125
124
126
248
48
125
125
126
248
50
126
125
127
248
50
126
125
127
248
50
126
125
127
248
50
126
125
127
248
50
126
125
127
248
50
126
125
127
248
50
126
125
127
248
50
126
125
127
252
115
31
7
33
48
248
50
126
125
127
255
30
31
0
248
50
126
125
127
248
50
126
125
127
250
122
0
248
50
126
125
127
248
51
126
126
127
248
51
126
126
127
248
51
126
126
127
248
51
126
126
127
248
51
126
126
127
248
55
128
128
127
248
59
129
130
128
248
60
130
130
128
248
60
130
130
128
248
58
129
129
128
248
56
128
128
128
248
51
126
126
127
248
51
126
126
127
248
51
126
126
127
248
51
126
126
127
248
51
126
126
127
248
51
126
126
127
248
51
126
126
127
248
51
126
32383
248
51
126
126
127
248
50
126
125
127
248
49
125
125
127
248
49
130
133
130
248
62
139
147
136
249
72
79
248
63
140
38023
248
51
132
134
129
248
48
126
124
126
248
63
125
124
126
248
48
126
124
126
248
49
126
125
126
248
49
126
125
126
248
49
126
125
126
248
49
126
125
126
248
49
126
125
126
248
49
126
125
126
248
49
126
125
126
248
50
126
125
127
248
50
126
125
127
248
50
126
125
127
248
50
126
125
127
248
51
126
126
127
248
53
127
127
127
248
55
128
128
127
248
59
129
130
128
248
63
131
132
128
248
49
131
133
129
248
51
132
134
129
248
51
132
134
129
248
52
133
134
129
248
51
132
134
129
248
50
132
133
129
248
63
130
132
129
248
59
129
130
128
248
54
127
128
127
248
51
126
126
127
248
63
125
124
126
248
63
125
124
126
248
63
125
124
126
248
63
125
124
126
248
63
125
124
126
248
63
125
124
126
248
63
125
124
126
248
48
125
125
126
248
49
125
125
127
248
50
126
125
127
248
50
126
125
127
248
50
126
125
127
248
50
126
125
127
248
50
126
125
127
248
50
126
125
127
248
50
126
125
127
248
50
126
125
127
248
50
126
125
127
248
50
126
125
127
248
51
126
126
127
248
51
126
126
127
248
51
126
126
127
248
51
126
126
127
248
51
126
126
127
248
51
126
126
127
248
53
127
127
127
248
58
129
129
128
252
115
31
7
33
48
255
7711
0
248
60
130
130
128
248
60
130
130
128
248
59
129
130
128
250
31232
248
56
128
128
128
248
51
126
126
127
248
51
126
126
127
248
51
126
126
127
248
51
126
126
127
248
51
126
126
127
248
51
126
126
127
248
51
126
126
127
248
51
126
126
127
248
51
126
126
127
248
50
126
125
127
248
49
125
125
127
248
63
129
132
130
248
59
138
146
135
248
49
140
149
136
249
72
79
248
54
133
135
130
248
49
126
125
126
248
63
125
124
126
248
48
126
124
126
248
49
126
125
126
248
49
126
125
126
248
49
126
32126
248
49
32381
126
248
49
126
125
126
248
49
32381
126
248
12926
125
127
248
50
126
125
127
248
50
126
125
127
248
50
126
125
127
248
50
126
125
127
248
51
126
126
127
248
53
127
127
127
248
55
128
128
127
248
59
129
130
128
248
63
131
132
128
248
49
131
133
129
248
51
132
134
129
248
51
132
134
129
248
52
133
34433
248
51
132
134
129
248
50
132
133
129
248
48
131
132
129
248
59
129
130
128
248
56
128
128
128
248
51
126
126
127
248
48
125
124
127
248
63
125
124
126
248
63
125
124
126
248
63
125
124
126
248
63
125
124
126
248
63
125
124
126
248
63
125
124
126
248
48
125
125
126
248
49
125
125
127
248
50
126
125
127
248
50
126
125
127
248
50
126
125
127
248
50
126
125
127
248
50
126
125
127
248
50
126
125
127
248
50
126
125
127
248
50
126
125
127
248
50
126
125
127
248
50
126
125
127
248
51
126
32383
248
51
126
126
127
248
51
126
126
127
248
51
126
126
127
248
51
126
126
127
248
51
126
126
127
248
13695
127
127
248
58
129
129
128
248
60
130
130
128
248
60
130
130
128
248
59
129
130
128
248
56
128
128
128
248
13439
126
127
248
51
126
126
127
248
51
126
126
127
248
51
126
126
127
248
51
126
126
127
248
51
126
126
127
252
115
31
7
33
48
248
51
126
126
127
65310
31
0
248
51
126
126
127
248
51
126
126
127
250
122
0
248
51
32382
127
248
49
125
125
127
248
62
129
131
130
248
57
137
145
135
248
49
140
149
136
249
72
79
248
55
133
136
130
248
49
126
32126
248
62
125
123
126
248
48
126
124
126
248
49
126
125
126
248
49
126
125
126
248
49
126
125
126
248
49
126
125
126
248
49
126
125
126
248
49
126
125
126
248
50
126
125
127
248
50
126
125
127
248
50
126
125
127
248
50
126
125
127
248
50
126
125
127
248
51
126
126
127
248
13439
126
127
248
55
128
128
127
248
59
129
130
128
248
62
131
131
128
248
49
131
133
129
248
51
132
134
129
248
51
132
134
129
248
52
133
134
129
248
51
132
134
129
248
50
132
133
129
248
48
131
132
129
248
59
129
130
128
248
56
128
128
128
248
51
126
126
127
248
48
125
124
127
248
63
125
124
126
248
63
125
124
126
248
63
125
124
126
248
63
125
124
126
248
63
125
124
126
248
63
125
124
126
248
48
125
125
126
248
49
125
125
127
248
50
126
125
127
248
50
126
125
127
248
50
126
125
127
248
50
126
125
127
248
50
126
125
127
248
50
126
125
127
248
50
126
125
127
248
12926
125
127
248
50
126
125
127
248
50
126
125
127
248
50
126
125
127
248
51
126
126
127
248
51
126
126
127
248
51
126
32383
248
13182
126
127
248
51
126
126
127
248
53
127
127
127
248
58
129
129
128
248
60
130
130
128
248
60
130
130
128
248
59
129
130
128
248
56
128
128
128
248
52
127
126
127
248
51
126
126
127
248
51
126
126
127
248
13182
126
127
248
51
126
126
127
248
51
126
126
127
248
51
126
126
127
248
51
32382
127
248
51
126
126
127
248
51
32382
127
248
49
125
125
127
248
59
128
130
129
248
56
137
144
135
248
50
141
149
136
249
72
79
248
58
134
137
131
248
51
127
126
126
252
115
31
7
33
48
248
62
32123
126
255
30
31
0
248
63
32124
126
248
49
126
125
126
250
122
0
248
49
126
125
126
248
49
126
125
126
248
49
126
125
126
248
12670
125
126
248
49
126
125
126
248
49
126
125
126
248
50
126
125
127
248
12926
125
127
248
50
126
125
127
248
50
126
32127
248
13182
126
127
248
52
127
126
127
248
55
128
128
127
248
59
129
130
128
248
61
130
33664
248
49
131
133
129
248
51
132
134
129
248
51
132
134
129
248
52
133
134
129
248
51
132
134
129
248
50
132
34177
248
48
131
132
129
248
59
129
130
128
248
56
128
128
128
248
51
126
32383
248
48
125
124
127
248
63
125
124
126
248
63
125
31870
248
16253
124
126
248
63
125
124
126
248
63
125
124
126
248
63
125
124
126
248
48
125
125
126
248
49
125
125
127
248
50
126
125
127
248
12926
125
127
248
12926
125
127
248
50
126
125
127
248
50
126
125
127
248
50
126
125
127
248
50
126
125
127
248
50
126
125
127
248
50
126
125
127
248
50
126
125
127
248
51
32382
127
248
51
126
126
127
248
51
126
126
127
248
13182
126
127
248
13182
126
127
248
51
126
126
127
248
53
127
127
127
248
14720
129
128
248
59
129
130
128
248
60
130
130
128
248
59
129
130
128
248
14464
128
128
248
13439
126
127
248
51
126
126
127
248
13182
126
127
248
13182
126
127
248
51
126
32383
248
51
126
126
127
248
13182
126
127
248
51
126
126
127
248
13182
126
127
248
51
126
126
127
248
12669
125
127
248
58
128
129
129
248
53
136
143
134
248
51
141
150
136
249
72
79
248
60
135
138
131
248
51
127
126
126
248
15997
123
126
248
63
125
124
126
248
49
126
125
126
248
49
126
125
126
248
12670
125
126
248
12670
125
126
248
49
126
125
126
248
12670
125
126
248
847150463
248
50
126
125
127
248
50
126
125
32764
115
31
7
33
48
255
30
31
0
248
50
126
125
127
248
50
126
125
127
248
51
32382
32762
122
0
248
52
127
126
127
248
14208
128
127
248
15233
130
128
248
15746
131
128
248
49
131
133
129
248
51
132
134
129
248
13188
134
129
248
52
133
134
129
248
51
132
134
129
248
12932
133
129
248
48
131
132
129
248
59
129
130
128
248
56
128
128
128
248
51
32382
127
248
48
125
124
127
248
16253
124
126
248
63
125
124
126
248
16253
124
126
248
63
125
124
126
248
63
125
124
126
248
63
8223870
248
48
125
125
126
248
50
126
125
127
248
50
126
32127
248
12926
125
127
248
50
126
125
127
248
50
126
125
127
248
50
126
125
127
248
12926
125
127
248
50
126
125
127
248
50
126
125
127
248
12926
125
127
248
50
126
125
127
248
51
32382
127
248
51
32382
127
248
13182
126
127
248
51
126
126
127
248
51
126
126
127
248
51
126
126
127
248
13695
127
127
248
57
128
33152
248
59
33154
128
248
60
130
130
128
248
59
129
130
128
248
56
128
128
128
248
13695
127
127
248
51
126
126
127
248
51
126
126
127
248
13182
126
127
248
51
126
126
127
248
51
126
126
127
248
51
126
126
127
248
51
126
126
127
248
51
126
126
127
248
13182
126
127
248
49
125
125
127
248
57
127
129
129
248
13448
36486
248
13197
38536
249
72
79
248
63
135
140
132
248
13695
127
127
248
15997
123
126
248
16253
31870
248
49
126
125
126
248
49
126
125
126
248
49
126
125
126
248
12670
125
126
248
12670
125
126
248
49
126
125
126
248
12926
125
127
248
12926
125
127
248
50
126
125
127
248
12926
125
127
248
50
126
32127
248
12926
125
127
248
13439
126
127
248
55
128
128
127
248
14977
129
128
248
61
130
33664
248
49
131
133
129
248
51
33926
129
248
51
132
134
129
252
115
31
7
33
48
248
52
133
134
129
255
7711
0
248
51
132
134
129
248
12932
34177
250
122
0
248
12419
33921
248
61
130
131
128
248
56
128
128
128
248
51
126
126
127
248
49
125
125
127
248
16253
124
126
248
63
125
124
126
248
63
125
124
126
248
63
125
31870
248
16253
124
126
248
63
32124
126
248
48
125
125
126
248
48
125
125
126
248
50
126
125
127
248
50
32381
127
248
50
126
125
127
248
12926
32127
248
50
126
125
127
248
50
126
125
127
248
50
32381
127
248
12926
125
127
248
50
126
125
127
248
50
126
125
127
248
50
32381
127
248
51
126
126
127
248
51
32382
127
248
51
32382
127
248
51
126
126
127
248
51
32382
127
248
53
127
127
127
248
57
128
129
128
248
59
129
130
128
248
61
8553344
248
59
129
130
128
248
57
128
129
128
248
53
127
127
127
248
13182
126
127
248
51
32382
127
248
51
126
126
127
248
51
126
126
127
248
51
126
126
127
248
51
126
126
127
248
51
126
126
127
248
51
126
126
127
248
51
126
126
127
248
49
125
125
127
248
56
127
128
129
248
49
135
141
133
248
51
141
150
136
249
72
79
248
49
34957
132
248
54
32895
127
248
62
32123
126
248
63
125
124
126
248
49
126
125
126
248
49
32381
126
248
49
126
125
126
248
49
126
125
126
248
49
126
125
126
248
49
32381
126
248
50
126
125
127
248
50
126
125
127
248
50
126
125
127
248
50
126
125
127
248
50
126
125
127
248
51
126
126
127
248
52
127
126
127
248
55
128
128
127
248
58
33153
128
248
61
130
131
128
248
48
131
132
129
248
51
132
134
129
248
51
132
134
129
248
52
133
134
129
248
52
133
134
129
248
50
132
133
129
248
48
33668
129
248
61
130
33664
248
57
128
129
128
248
52
127
126
127
248
49
125
125
127
248
63
125
124
126
248
63
125
124
126
252
115
31
7
33
48
248
63
32124
126
255
30
31
0
248
63
125
124
126
248
63
32124
126
250
122
0
248
63
125
31870
248
63
125
124
126
248
48
32125
126
248
49
126
125
126
248
50
32381
127
248
50
126
125
127
248
50
126
125
127
248
50
126
125
127
248
50
126
125
127
248
50
126
32127
248
50
126
125
127
248
50
126
125
127
248
50
126
125
127
248
50
126
125
127
248
51
126
126
127
248
51
32382
127
248
51
126
126
127
248
51
126
126
127
248
51
126
126
127
248
53
127
127
127
248
57
32897
128
248
59
33154
128
248
61
130
131
128
248
59
129
130
128
248
57
128
129
128
248
53
32639
127
248
51
126
126
127
248
51
126
126
127
248
51
126
126
127
248
51
126
126
127
248
51
126
32383
248
51
126
126
127
248
51
126
126
127
248
51
126
126
127
248
51
126
126
127
248
49
125
125
127
248
55
127
128
128
248
63
34444
133
248
51
141
150
136
249
72
79
248
52
137
36485
248
55
128
128
127
248
62
125
123
126
248
63
32124
126
248
49
126
125
126
248
49
126
125
126
248
49
126
125
126
248
49
126
32126
248
49
126
125
126
248
49
126
125
126
248
49
126
32126
248
50
126
125
127
248
50
126
125
127
248
50
126
125
127
248
50
126
125
127
248
50
126
125
127
248
52
127
126
127
248
54
128
32639
248
58
129
33152
248
61
130
131
128
248
48
131
132
129
248
50
132
133
129
248
51
132
134
129
248
52
133
134
129
248
52
133
134
129
248
50
132
133
129
248
49
131
34177
248
61
33411
128
248
57
32897
128
248
53
127
127
127
248
49
32125
127
248
63
125
31870
248
63
125
124
126
248
63
125
124
126
248
63
125
124
126
248
63
125
124
126
248
63
125
124
126
248
63
125
124
126
248
48
125
125
126
248
50
126
125
127
248
50
126
125
127
248
50
126
125
127
248
50
126
125
127
248
50
126
125
127
252
29471
7
33
48
255
30
31
0
248
50
126
125
127
248
50
126
125
127
248
50
126
125
127
250
31232
248
50
126
125
127
248
50
126
125
127
248
50
126
32127
248
51
126
126
127
248
51
126
126
127
248
51
126
126
127
248
51
126
126
127
248
51
126
126
127
248
53
127
127
127
248
56
128
32896
248
59
129
130
128
248
60
130
130
128
248
59
129
130
128
248
57
128
129
128
248
53
127
127
127
248
51
126
126
127
248
51
126
126
127
248
51
126
126
127
248
51
126
126
127
248
51
126
126
127
248
51
126
32383
248
51
126
32383
248
51
126
126
127
248
51
126
32383
248
49
125
125
127
248
53
126
127
128
248
61
133
139
133
248
51
141
150
136
249
72
79
248
53
137
143
133
248
57
129
129
127
248
62
125
123
126
248
63
125
124
126
248
49
126
125
126
248
49
126
125
126
248
49
126
125
126
248
49
126
125
126
248
49
126
125
126
248
50
126
125
127
248
50
126
125
127
248
50
126
125
127
248
50
126
125
127
248
50
126
125
127
248
50
126
125
127
248
50
126
125
127
248
52
127
126
127
248
54
128
127
127
248
58
129
129
128
248
61
130
131
128
248
63
131
132
128
248
50
132
133
129
248
51
132
134
129
248
52
133
34433
248
52
133
134
129
248
51
132
34433
248
49
131
133
129
248
61
130
131
128
248
57
128
33152
248
53
127
127
127
248
50
126
125
127
248
63
125
124
126
248
63
125
124
126
248
63
125
124
126
248
63
125
31870
248
63
125
124
126
248
63
125
124
126
248
63
125
124
126
248
48
125
125
126
248
49
126
125
126
248
50
126
125
127
248
50
126
125
127
248
50
126
125
127
248
50
126
125
127
248
50
126
125
127
248
50
126
125
127
248
50
126
125
127
248
50
126
125
127
248
50
126
125
127
248
50
126
125
127
248
13182
126
127
248
51
126
126
127
248
51
126
126
127
248
51
126
126
127
252
115
31
7
33
48
248
51
126
126
8388382
31
0
248
53
127
127
127
248
56
128
128
128
250
122
0
248
59
129
130
128
248
60
130
130
128
248
59
129
130
128
248
57
128
129
128
248
53
127
127
127
248
51
126
126
127
248
50
126
125
127
248
51
126
32383
248
51
126
126
127
248
51
126
126
127
248
51
126
32383
248
51
126
126
127
248
51
126
126
127
248
51
126
126
127
248
49
125
125
127
248
53
126
127
128
248
59
133
138
132
248
49
140
149
136
249
72
79
248
56
138
144
134
248
58
129
129
128
248
62
125
123
126
248
63
125
124
126
248
49
126
125
126
248
49
126
125
126
248
49
126
125
126
248
49
126
125
126
248
49
126
125
126
248
50
126
125
127
248
50
126
125
127
248
50
126
125
127
248
50
126
125
127
248
50
126
125
127
248
50
126
125
127
248
50
126
125
127
248
52
127
126
127
248
53
127
127
127
248
58
129
129
128
248
61
130
131
128
248
63
131
132
128
248
50
132
133
129
248
51
132
134
129
248
52
133
134
129
248
52
133
134
129
248
51
132
134
129
248
49
131
133
129
248
61
130
131
128
248
57
128
129
128
248
53
127
127
127
248
50
126
125
127
248
63
125
124
126
248
63
125
124
126
248
63
125
124
126
248
63
125
124
126
248
63
125
124
126
248
63
125
124
126
248
48
125
125
126
248
49
125
125
127
248
49
125
125
127
248
50
126
125
127
248
50
126
125
127
248
50
126
125
127
248
50
126
125
127
248
50
126
125
127
248
50
126
125
127
248
50
126
125
127
248
50
126
125
127
248
50
126
125
127
248
50
126
125
127
248
51
126
126
127
248
51
126
126
127
248
51
126
126
127
248
51
126
126
127
248
51
126
126
127
248
52
127
32383
248
56
128
128
128
248
59
129
130
128
248
60
130
130
128
248
59
129
130
128
248
57
128
129
128
248
53
127
127
127
248
51
126
126
127
248
51
126
126
127
252
115
31
7
33
48
248
51
126
126
127
255
30
31
0
248
51
126
126
127
248
51
126
126
127
250
122
0
248
51
126
126
127
248
51
126
126
127
248
51
126
126
127
248
51
126
126
127
248
50
126
125
127
248
52
126
126
128
248
56
132
136
132
248
49
140
149
136
249
72
79
248
57
138
145
134
248
60
130
130
128
248
62
125
123
126
248
63
125
124
126
248
49
126
125
126
248
49
126
125
126
248
49
126
125
126
248
49
126
125
126
248
49
126
125
126
248
49
126
125
126
248
50
126
125
127
248
50
126
125
127
248
50
126
125
127
248
50
126
125
127
248
50
126
125
127
248
50
126
125
127
248
51
126
126
127
248
53
127
127
127
248
58
129
129
128
248
61
130
131
128
248
63
131
132
128
248
50
132
133
129
248
51
132
34433
248
52
133
134
129
248
52
133
134
129
248
51
132
134
129
248
49
131
133
129
248
62
130
131
129
248
58
129
129
128
248
53
127
127
127
248
50
126
125
127
248
63
125
124
126
248
63
125
124
126
248
63
125
124
126
248
63
125
124
126
248
63
125
124
126
248
63
125
124
126
248
63
125
124
126
248
48
125
125
126
248
49
125
125
127
248
50
126
125
127
248
50
126
125
127
248
50
126
125
127
248
50
126
125
127
248
50
126
125
127
248
50
126
125
127
248
50
126
125
127
248
50
126
125
127
248
50
126
125
127
248
50
126
125
127
248
51
126
126
127
248
51
126
126
127
248
51
126
126
127
248
51
126
126
127
248
51
126
126
127
248
52
127
126
127
248
56
128
128
128
248
59
129
130
128
248
60
130
130
128
248
59
129
130
128
248
58
129
129
128
248
53
127
127
127
248
51
126
126
127
248
50
126
125
127
248
51
126
126
127
248
51
126
126
127
248
51
126
126
127
248
51
126
126
127
248
51
126
32383
248
51
126
126
127
248
51
126
126
127
248
50
126
125
127
248
52
126
126
128
248
53
131
135
131
248
48
140
38024
252
115
31
7
33
48
255
30
31
0
249
72
79
248
60
139
146
135
248
61
130
131
128
248
63
125
124
126
250
31232
248
63
125
124
126
248
49
126
125
126
248
49
126
125
126
248
49
126
125
126
248
49
126
125
126
248
49
126
125
126
248
49
126
125
126
248
50
126
125
127
248
50
126
125
127
248
50
126
125
127
248
50
126
125
127
248
50
126
125
127
248
50
126
125
127
248
51
126
126
127
248
53
127
127
127
248
57
129
129
127
248
60
130
130
128
248
63
131
132
128
248
50
132
133
129
248
51
132
134
129
248
52
133
134
129
248
52
133
134
129
248
51
132
134
129
248
50
132
133
129
248
62
130
131
129
248
58
129
129
128
248
53
127
127
127
248
50
126
125
127
248
63
125
124
126
248
63
125
124
126
248
63
125
124
126
248
63
125
124
126
248
63
125
124
126
248
63
125
124
126
248
63
125
124
126
248
48
125
125
126
248
49
125
125
127
248
50
126
125
127
248
50
126
125
127
248
50
126
125
127
248
50
126
125
127
248
50
126
125
127
248
50
126
125
127
248
50
32381
127
248
50
126
125
127
248
50
126
32127
248
50
126
125
127
248
51
126
126
127
248
51
126
126
127
248
51
126
126
127
248
51
126
126
127
248
51
126
126
127
248
52
127
126
127
248
56
128
128
128
248
15233
130
128
248
60
130
130
128
248
60
130
130
128
248
58
129
129
128
248
53
127
127
127
248
51
126
126
127
248
51
126
126
127
248
51
126
126
127
248
51
126
126
127
248
51
126
126
127
248
51
126
126
127
248
51
126
126
127
248
51
126
126
127
248
51
126
126
127
248
50
126
125
127
248
51
125
126
128
248
52
131
134
131
248
63
139
148
136
249
72
79
248
61
35731
135
248
48
131
132
129
248
63
125
124
126
248
63
125
124
126
248
49
126
125
126
248
49
126
125
126
248
49
126
125
126
248
49
126
125
126
248
49
126
125
126
248
49
126
125
126
252
115
31
7
33
48
248
50
126
125
127
255
7711
0
248
50
126
125
127
248
50
126
125
127
250
122
0
248
50
126
125
127
248
50
126
125
127
248
50
126
125
127
248
51
126
126
127
248
53
127
32639
248
56
128
129
127
248
60
130
33408
248
63
131
132
128
248
50
132
133
129
248
51
132
134
129
248
52
133
134
129
248
52
133
134
129
248
51
132
134
129
248
50
132
133
129
248
63
130
132
129
248
59
129
130
128
248
53
127
127
127
248
50
126
125
127
248
63
125
124
126
248
63
125
124
126
248
63
125
124
126
248
63
125
124
126
248
63
125
124
126
248
63
125
124
126
248
63
125
124
126
248
48
125
125
126
248
49
126
125
126
248
50
126
125
127
248
50
126
125
127
248
50
126
125
127
248
50
126
125
127
248
50
126
125
127
248
50
126
125
127
248
50
126
125
127
248
50
126
125
127
248
50
126
125
127
248
50
126
125
127
248
51
126
126
127
248
51
126
126
127
248
51
126
126
127
248
51
126
126
127
248
51
126
126
127
248
51
126
126
127
248
55
128
128
127
248
59
129
130
128
248
60
130
130
128
248
60
130
130
128
248
58
129
129
128
248
54
127
128
127
248
51
126
126
127
248
51
126
126
127
248
51
126
126
127
248
51
126
126
127
248
51
126
126
127
248
51
32382
127
248
51
126
126
127
248
51
126
126
127
248
51
126
126
127
248
50
126
125
127
248
49
125
125
127
248
50
130
133
131
248
62
139
147
136
249
72
79
248
63
35988
135
248
49
33669
129
248
48
126
124
126
248
63
125
124
126
248
49
126
125
126
248
49
126
125
126
248
49
126
125
126
248
49
126
125
126
248
49
126
125
126
248
49
126
125
126
248
49
126
125
126
248
50
126
125
127
248
50
126
125
127
248
50
126
125
127
248
50
126
125
127
248
50
126
125
127
248
51
126
126
127
248
53
127
127
127
248
55
128
128
127
248
60
130
130
128
252
29471
7
8496
248
63
131
132
128
255
30
31
0
248
50
132
133
129
248
51
132
134
129
250
122
0
248
51
33926
129
248
52
133
134
129
248
51
132
134
129
248
50
132
133
129
248
63
130
132
129
248
59
129
130
128
248
54
127
128
127
248
51
126
32383
248
63
125
124
126
248
63
125
124
126
248
63
125
124
126
248
63
125
124
126
248
63
125
124
126
248
63
125
124
126
248
63
125
124
126
248
48
125
125
126
248
49
125
125
127
248
50
126
125
127
248
50
126
125
127
248
50
126
125
127
248
50
126
125
127
248
50
126
125
127
248
50
126
125
127
248
50
126
125
127
248
50
126
125
127
248
50
126
125
127
248
50
126
125
127
248
51
32382
127
248
51
126
126
127
248
51
126
126
127
248
51
126
126
127
248
51
126
126
127
248
51
126
126
127
248
54
127
128
127
248
59
33154
128
248
60
130
130
128
248
60
130
130
128
248
58
129
129
128
248
55
127
128
128
248
51
126
126
127
248
50
126
125
127
248
51
126
126
127
248
51
126
126
127
248
51
126
126
127
248
51
126
126
127
248
51
126
126
127
248
51
32382
127
248
51
126
126
127
248
50
126
125
127
248
49
125
125
127
248
63
129
132
130
248
60
138
147
135
249
72
79
248
63
35988
135
248
51
132
134
129
248
48
126
124
126
248
63
125
124
126
248
48
126
124
126
248
49
126
125
126
248
49
126
125
126
248
49
126
125
126
248
49
126
125
126
248
49
126
125
126
248
49
126
125
126
248
50
126
125
127
248
50
126
125
127
248
50
126
125
127
248
50
126
125
127
248
50
126
125
127
248
51
126
126
127
248
53
127
127
127
248
55
128
128
127
248
59
129
130
128
248
63
131
132
128
248
50
132
133
129
248
51
132
134
129
248
51
132
134
129
248
52
133
134
129
248
51
132
134
129
248
50
132
133
129
248
48
131
132
129
248
59
129
130
128
248
54
127
128
127
248
51
126
126
127
252
29471
7
8496
255
30
7936
248
63
125
124
126
248
63
125
124
126
248
63
125
124
126
64122
0
248
63
125
124
126
248
63
125
124
126
248
63
125
124
126
248
63
125
124
126
248
48
125
125
126
248
48
125
125
126
248
50
126
125
127
248
50
126
125
127
248
50
126
125
127
248
50
126
125
127
248
50
126
125
127
248
50
126
125
127
248
50
126
125
127
248
50
32381
127
248
50
126
125
127
248
50
126
125
127
248
51
126
126
127
248
51
126
126
127
248
51
126
126
127
248
51
126
126
127
248
51
126
126
127
248
51
126
126
127
248
53
127
127
127
248
58
129
33152
248
60
130
130
128
248
60
130
130
128
248
59
129
130
128
248
56
128
128
128
248
52
127
126
127
248
51
126
126
127
248
51
32382
127
248
51
126
126
127
248
51
126
126
127
248
13182
126
127
248
51
126
126
127
248
51
126
126
127
248
51
126
126
127
248
51
126
126
127
248
49
125
125
127
248
63
129
132
130
248
59
138
146
135
248
49
140
149
136
249
72
79
248
54
133
34690
248
49
126
125
126
248
62
125
123
126
248
48
126
124
126
248
49
126
125
126
248
49
126
125
126
248
49
126
125
126
248
49
126
125
126
248
49
126
125
126
248
50
126
125
127
248
50
126
125
127
248
50
126
125
127
248
50
126
125
127
248
50
126
125
127
248
50
126
125
127
248
51
32382
127
248
53
127
127
127
248
55
128
128
127
248
59
129
33408
248
62
131
131
128
248
49
131
133
129
248
51
132
134
129
248
51
132
134
129
248
52
34182
129
248
51
132
134
129
248
50
132
133
129
248
48
131
132
129
248
59
129
130
128
248
56
128
128
128
248
51
126
32383
248
63
125
124
126
248
63
125
124
126
248
63
32124
126
248
63
125
124
126
248
63
125
124
126
248
63
125
124
126
248
63
125
124
126
248
48
125
125
126
248
49
125
125
127
248
50
126
32127
252
115
31
7
33
48
248
50
126
125
32767
30
31
0
248
50
32381
127
248
50
126
125
127
250
122
0
248
50
126
125
127
248
50
126
125
127
248
50
126
125
127
248
50
126
125
127
248
50
126
125
127
248
50
126
125
127
248
12926
125
127
248
51
126
126
127
248
51
126
126
127
248
13182
126
127
248
51
126
126
127
248
51
32382
127
248
53
127
127
127
248
14977
129
128
248
60
130
130
128
248
60
130
130
128
248
59
129
33408
248
56
128
128
128
248
52
127
32383
248
51
126
126
127
248
51
126
126
127
248
51
126
126
127
248
51
126
126
127
248
51
126
126
127
248
51
126
126
127
248
51
126
126
127
248
51
32382
127
248
51
126
126
127
248
49
125
125
127
63549
128
131
130
248
57
137
145
135
248
50
141
149
136
249
72
79
248
57
134
35202
248
49
32381
126
248
62
125
123
126
248
63
125
124
126
248
49
126
125
126
248
12670
125
126
248
49
126
125
126
248
49
126
125
126
248
49
126
125
126
248
49
126
125
126
248
50
126
125
127
248
12926
125
127
248
50
32381
127
63538
126
125
127
248
50
126
125
127
248
51
126
126
127
248
52
127
126
127
248
55
128
128
127
248
59
129
130
128
248
15746
131
128
248
49
131
133
129
248
51
132
134
129
248
51
33926
129
248
52
133
134
129
248
13188
134
129
248
50
132
133
129
248
12419
132
129
248
59
129
130
128
248
56
32896
128
248
51
126
126
127
248
12413
124
127
248
63
125
124
126
248
63
125
124
126
248
63
32124
126
248
63
125
124
126
248
63
125
124
126
248
63
125
124
126
248
48
125
125
126
248
49
126
32126
248
12926
125
127
248
50
126
125
127
248
12926
125
127
248
50
126
125
127
248
50
126
125
127
248
12926
125
127
248
12926
125
127
248
50
126
125
127
248
12926
125
127
248
50
126
32127
248
50
126
125
127
252
115
31
7
8496
248
51
126
126
127
255
30
31
0
248
13182
126
127
63539
126
126
127
250
122
0
248
13182
126
127
248
13182
126
127
248
53
127
127
127
248
14977
129
128
248
59
129
33408
248
15490
130
128
248
59
129
130
128
248
14464
128
128
248
13439
126
127
248
50
126
125
127
248
13182
126
127
248
51
126
126
127
248
51
126
126
127
248
51
126
126
127
248
13182
126
127
248
51
126
32383
248
13182
126
127
63539
126
126
127
248
49
125
125
127
248
59
128
130
129
248
14473
144
135
248
50
141
149
136
249
72
79
248
59
134
138
131
248
51
127
126
126
248
62
125
123
126
248
63
125
124
126
248
49
126
32126
248
49
126
125
126
248
12670
125
126
248
49
126
125
126
248
49
126
125
126
248
49
126
125
126
248
50
126
125
127
248
12926
125
127
248
50
126
125
127
248
12926
125
127
248
50
126
125
127
248
51
126
126
127
248
52
127
126
127
248
14208
128
127
248
59
129
130
128
248
61
130
131
128
248
49
33669
129
248
51
132
134
129
248
13188
134
129
248
52
133
134
129
248
51
132
134
129
248
50
132
133
129
248
48
131
132
129
248
59
129
130
128
248
56
128
128
128
248
51
126
126
127
248
48
125
124
127
248
16253
124
126
248
63
125
124
126
248
16253
124
126
248
63
125
124
126
248
63
125
124
126
248
16253
124
126
248
48
125
125
126
248
49
125
125
127
248
50
126
125
127
248
50
126
125
127
248
50
126
125
127
248
12926
125
127
248
50
126
125
127
248
50
126
125
127
248
50
126
125
127
248
12926
125
127
248
50
126
125
127
248
50
126
125
127
248
50
126
125
127
248
51
126
126
127
248
51
126
126
127
248
51
126
126
127
248
51
126
126
127
248
51
126
126
127
248
13695
127
127
248
57
128
129
128
248
15233
130
128
248
60
130
130
128
248
59
129
130
128
248
56
128
128
33020
115
31
7
33
48
255
30
31
0
248
52
127
126
127
248
51
32382
127
248
51
126
126
127
250
31232
248
51
126
126
127
248
51
126
126
127
248
13182
126
127
248
51
126
126
127
248
13182
32383
248
13182
126
127
248
51
32382
127
248
49
125
125
127
248
57
127
129
129
248
53
136
143
134
248
51
141
150
136
249
72
79
248
15751
139
131
248
52
127
126
127
248
62
125
123
126
248
63
125
124
126
248
49
126
125
126
248
12670
125
126
248
12670
32126
248
49
126
125
126
248
49
126
125
126
248
50
126
125
127
248
50
126
125
127
248
50
126
125
127
248
12926
125
127
248
50
126
125
127
248
50
126
125
127
248
51
126
126
127
248
13439
126
127
248
55
128
128
127
248
15233
130
128
248
61
130
131
128
248
49
131
133
129
248
51
132
134
129
248
51
132
134
129
248
52
133
134
129
248
51
132
134
129
248
12932
34177
248
48
33668
129
248
60
130
130
128
248
14464
32896
248
51
126
126
127
248
12669
125
127
248
63
125
124
126
248
63
125
124
126
248
63
125
124
126
248
63
125
124
126
248
63
125
124
126
248
63
32124
126
248
63
125
124
126
248
48
125
125
126
248
50
126
32127
248
50
126
125
127
248
50
126
125
127
248
50
126
125
127
248
50
126
125
127
248
50
126
125
127
248
50
126
125
127
248
50
126
125
127
248
50
32381
127
248
50
126
125
127
248
51
126
126
127
248
51
32382
127
248
51
126
126
127
248
51
126
126
127
248
51
126
126
127
248
51
32382
127
248
53
127
127
127
248
57
128
129
128
248
59
129
130
128
248
15490
33408
248
59
129
130
128
248
56
128
128
128
248
13695
32639
248
51
126
126
127
248
51
126
126
127
248
51
32382
127
248
51
32382
127
248
51
32382
127
248
51
126
126
127
248
51
126
126
127
248
51
126
126
127
248
51
32382
127
252
115
31
7
33
48
248
49
125
125
127
255
30
31
0
248
57
32641
129
248
51
135
142
134
250
122
0
248
51
141
150
136
249
72
79
248
48
136
140
132
248
53
127
127
127
248
62
32123
126
248
63
125
124
126
248
49
126
125
126
248
49
126
125
126
248
49
32381
126
248
49
126
125
126
248
49
32381
126
248
49
126
32126
248
50
32381
127
248
50
32381
127
248
50
126
125
127
248
50
32381
127
248
50
126
125
127
248
51
32382
127
248
52
32638
127
248
55
128
128
127
248
58
129
129
128
248
61
130
33664
248
49
33669
129
248
51
132
134
129
248
51
33926
129
248
52
133
134
129
248
52
133
134
129
248
50
33925
129
248
48
131
132
129
248
61
130
131
128
248
56
128
128
128
248
51
32382
127
248
49
125
125
127
248
63
125
124
126
248
63
125
124
126
248
63
125
124
126
248
63
125
31870
248
63
125
124
126
248
63
125
124
126
248
48
125
125
126
248
49
126
125
126
248
49
126
125
126
248
50
126
32127
248
50
126
125
127
248
50
126
125
127
248
50
126
125
127
248
50
126
125
127
248
50
126
125
127
248
50
126
125
127
248
50
126
125
127
248
50
32381
127
248
50
126
125
127
248
51
126
126
127
248
51
32382
127
248
51
126
126
127
248
51
126
126
127
248
51
126
126
127
248
53
127
127
127
248
57
128
129
128
248
59
129
130
128
248
60
130
130
128
248
59
129
33408
248
57
128
129
128
248
53
127
127
127
248
51
126
126
127
248
51
126
126
127
248
51
126
32383
248
51
126
126
127
248
51
126
126
127
248
51
126
126
127
248
51
126
126
127
248
51
126
126
127
248
51
32382
127
248
49
32125
127
248
55
127
32896
248
49
34701
133
248
51
141
150
136
249
72
79
248
49
136
141
132
248
55
128
128
127
248
62
125
123
126
248
63
125
124
126
248
49
126
125
126
248
49
126
125
126
252
115
31
7
33
48
248
49
126
125
126
255
30
31
0
248
49
126
125
126
248
49
126
32126
250
122
0
248
49
126
125
126
248
49
32381
126
248
50
126
125
127
248
50
126
125
127
248
50
126
32127
248
50
126
125
127
248
50
126
125
127
248
52
127
126
127
248
55
128
32895
248
58
129
33152
248
61
130
131
128
248
48
131
132
129
248
51
132
134
129
248
51
132
34433
248
52
133
134
129
248
52
133
134
129
248
50
132
34177
248
48
131
33921
248
61
130
33664
248
57
128
129
128
248
52
127
126
127
248
49
125
125
127
248
63
125
124
126
248
63
125
124
126
248
63
125
124
126
248
63
125
124
126
248
63
125
124
126
248
63
125
124
126
248
63
125
124
126
248
49
125
125
127
248
49
125
125
127
248
50
126
32127
248
50
126
125
127
248
50
126
125
127
248
50
126
32127
248
50
126
125
127
248
50
126
125
127
248
50
126
32127
248
50
126
125
127
248
50
126
125
127
248
51
126
126
127
248
51
126
32383
248
51
126
126
127
248
51
126
126
127
248
51
126
126
127
248
51
126
32383
248
53
127
127
127
248
57
128
129
128
248
59
129
130
128
248
60
130
130
128
248
59
129
130
128
248
57
128
129
128
248
53
127
127
127
248
51
126
126
127
248
51
126
126
127
248
51
126
126
127
248
51
126
32383
248
51
126
126
127
248
51
126
126
127
248
51
126
126
127
248
51
126
126
127
248
51
126
32383
248
49
125
125
127
248
53
126
127
128
248
62
134
139
133
248
51
141
38536
249
72
79
248
52
137
142
133
248
55
128
32895
248
62
125
123
126
248
63
125
124
126
248
49
126
125
126
248
49
126
125
126
248
49
126
32126
248
49
126
125
126
248
49
126
32126
248
49
126
125
126
248
50
126
32127
248
50
126
125
127
248
50
126
125
127
248
50
126
125
127
248
50
126
125
127
248
50
126
125
127
248
52
127
126
127
64627
31
7
33
48
255
30
31
0
248
54
128
127
127
248
58
129
129
128
248
61
130
33664
64122
0
248
48
131
132
129
248
50
132
133
129
248
51
132
134
129
248
52
133
34433
248
51
132
134
129
248
50
132
133
129
248
49
131
133
129
248
61
130
131
128
248
57
128
33152
248
53
127
127
127
248
49
125
125
127
248
63
125
124
126
248
63
125
124
126
248
63
125
124
126
248
63
125
31870
248
63
125
124
126
248
63
125
31870
248
63
125
124
126
248
48
125
125
126
248
50
126
125
127
248
50
126
32127
248
50
126
125
127
248
50
126
125
127
248
50
126
32127
248
50
126
125
127
248
50
126
32127
248
50
126
125
127
248
50
126
125
127
248
50
126
32127
248
50
126
125
127
248
51
126
126
127
248
51
126
126
127
248
51
126
126
127
248
51
126
126
127
248
51
126
126
127
248
53
127
127
127
248
56
128
128
128
248
59
129
130
128
248
60
130
130
128
248
59
129
130
128
248
57
128
129
128
248
53
127
127
127
248
51
126
126
127
248
51
126
126
127
248
51
126
126
127
248
51
126
126
127
248
51
126
126
127
248
51
126
126
127
248
51
126
126
127
248
51
126
126
127
248
51
126
126
127
248
49
125
125
127
248
53
126
127
128
248
60
133
138
133
248
49
140
149
136
249
72
79
248
53
137
143
133
248
58
129
129
128
248
62
125
123
126
248
63
125
124
126
248
49
126
125
126
248
49
126
125
126
248
49
126
125
126
248
49
126
125
126
248
49
126
125
126
248
49
126
125
126
248
49
126
125
126
248
50
126
125
127
248
50
126
125
127
248
50
126
125
127
248
50
126
32127
248
50
126
125
127
248
52
127
126
127
248
53
127
127
127
248
58
129
129
128
248
61
130
131
128
248
48
131
132
129
248
50
132
133
129
248
51
132
134
129
248
52
133
134
129
248
52
133
134
129
248
51
132
134
129
248
49
131
133
129
252
115
31
7
33
48
248
61
130
131
128
16719391
0
248
57
128
129
128
248
53
127
127
127
250
122
0
248
50
126
125
127
248
63
125
124
126
248
63
125
124
126
248
63
125
124
126
248
63
125
124
126
248
63
125
124
126
248
63
125
124
126
248
63
125
124
126
248
49
125
125
127
248
50
126
125
127
248
50
126
125
127
248
50
126
125
127
248
50
126
125
127
248
50
126
125
127
248
50
126
125
127
248
50
126
125
127
248
50
126
125
127
248
50
126
125
127
248
50
126
125
127
248
50
126
125
127
248
50
126
125
127
248
51
126
126
127
248
51
126
126
127
248
51
126
126
127
248
51
126
126
127
248
52
127
126
127
248
56
128
128
128
248
59
129
130
128
248
60
130
130
128
248
59
129
130
128
248
57
128
129
128
248
53
127
127
127
248
51
126
126
127
248
51
126
126
127
248
51
126
126
127
248
51
126
126
127
248
51
126
126
127
248
51
126
126
127
248
51
126
126
127
248
51
126
126
127
248
51
126
126
127
248
50
126
125
127
248
53
126
127
128
248
57
132
137
132
248
49
140
149
136
249
72
79
248
56
138
144
134
248
59
129
130
128
248
62
125
123
126
248
63
125
124
126
248
49
126
125
126
248
49
126
125
126
248
49
126
125
126
248
49
126
125
126
248
49
126
32126
248
49
126
125
126
248
49
126
125
126
248
50
126
125
127
248
50
126
125
127
248
50
126
125
127
248
50
126
125
127
248
50
126
125
127
248
51
126
126
127
248
53
127
127
127
248
58
129
129
128
248
61
130
131
128
248
63
131
132
128
248
50
132
133
129
248
51
132
134
129
248
52
133
134
129
248
52
133
134
129
248
51
132
134
129
248
49
131
133
129
248
61
130
131
128
248
58
129
129
128
248
53
127
127
127
248
50
126
125
127
248
63
125
124
126
248
63
125
124
126
248
63
125
124
126
248
63
125
124
126
248
63
125
124
126
248
63
125
124
126
252
115
31
7
8496
248
63
125
124
126
255
30
31
0
248
48
125
125
126
248
49
126
125
126
250
122
0
248
50
126
125
127
248
50
126
125
127
248
50
126
125
127
248
50
126
125
127
248
50
126
125
127
248
50
126
125
127
248
50
126
125
127
248
50
126
125
127
248
50
126
125
127
248
50
126
125
127
248
51
126
126
127
248
51
126
126
127
248
51
126
126
127
248
51
126
126
127
248
51
126
126
127
248
52
127
126
127
248
56
128
128
128
248
59
33154
128
248
60
130
130
128
248
59
129
130
128
248
57
128
129
128
248
53
127
127
127
248
51
126
126
127
248
51
126
126
127
248
51
126
126
127
248
51
126
126
127
248
51
126
126
127
248
51
126
126
127
248
51
126
126
127
248
51
126
126
127
248
51
126
126
127
248
50
126
125
127
248
52
126
126
128
248
56
132
136
132
248
49
140
149
136
249
72
79
248
58
139
145
134
248
61
130
131
128
248
62
125
123
126
248
63
125
124
126
248
49
126
125
126
248
49
126
125
126
248
49
126
125
126
248
49
126
125
126
248
49
126
125
126
248
49
126
32126
248
49
126
125
126
248
50
126
125
127
248
50
126
125
127
248
50
126
125
127
248
50
126
125
127
248
50
126
125
127
248
51
126
126
127
248
53
127
127
127
248
14977
129
128
248
60
130
130
128
248
63
131
132
128
248
50
132
133
129
248
51
132
134
129
248
52
133
134
129
248
52
133
134
129
248
51
132
134
129
248
49
131
34177
248
62
130
131
129
248
58
129
129
128
248
53
127
127
127
248
50
126
125
127
248
63
125
124
126
248
63
125
124
126
248
63
125
124
126
248
63
125
124
126
248
63
125
124
126
248
63
125
124
126
248
63
125
124
126
248
48
125
125
126
248
49
125
125
127
248
50
126
125
127
248
50
126
125
127
248
50
126
125
127
248
50
126
125
127
248
50
126
125
127
248
50
126
125
127
248
50
126
125
127
248
50
126
125
127
252
29471
7
33
48
255
30
31
0
248
50
126
125
127
248
50
126
125
127
248
51
126
126
127
64122
0
248
51
126
126
127
248
51
126
126
127
248
51
126
126
127
248
51
126
126
127
248
52
127
126
127
248
56
128
128
128
248
59
129
130
128
248
61
130
131
128
248
60
130
130
128
248
58
129
129
128
248
53
127
127
127
248
51
126
126
127
248
50
126
125
127
248
51
126
126
127
248
51
126
126
127
248
51
126
126
127
248
51
126
126
127
248
51
126
126
127
248
51
126
126
127
248
51
126
126
127
248
50
126
125
127
248
52
126
126
128
248
53
131
135
131
248
48
140
148
136
249
72
79
248
60
139
146
135
248
62
130
132
128
248
63
125
31870
248
63
125
124
126
248
49
126
125
126
248
49
126
125
126
248
49
126
125
126
248
49
126
125
126
248
49
126
125
126
248
49
126
125
126
248
50
126
125
127
248
50
126
125
127
248
50
126
125
127
248
12926
125
127
248
50
126
125
127
248
50
126
125
127
248
51
126
126
127
248
53
127
127
127
248
57
129
129
127
248
60
130
130
128
248
63
131
132
128
248
50
132
133
129
248
51
132
134
129
248
52
133
134
129
248
52
133
134
129
248
51
132
134
129
248
50
132
133
129
248
62
130
131
129
248
58
129
129
128
248
53
127
127
127
248
50
126
125
127
248
63
125
124
126
248
63
125
124
126
248
63
125
124
126
248
63
125
124
126
248
63
125
124
126
248
63
125
124
126
248
63
125
124
126
248
48
125
125
126
248
49
126
125
126
248
50
126
125
127
248
50
126
125
127
248
50
126
125
127
248
50
126
125
127
248
50
126
125
127
248
50
126
125
127
248
50
126
125
127
248
50
126
125
127
248
50
126
125
127
248
50
126
125
127
248
51
126
126
127
248
51
126
126
127
248
51
126
126
127
248
51
126
126
127
248
51
126
126
127
248
52
127
126
127
248
56
128
128
128
248
59
129
130
128
252
115
31
7
33
48
248
60
130
130
33023
30
31
0
248
60
130
130
128
248
58
129
129
128
250
122
0
248
53
127
127
127
248
51
126
126
127
248
50
126
125
127
248
51
126
126
127
248
51
126
126
127
248
51
126
126
127
248
51
126
126
127
248
51
126
126
127
248
51
126
126
127
248
51
126
126
127
248
50
126
125
127
248
13181
126
128
248
51
130
134
131
248
63
139
148
136
249
72
79
248
62
35987
135
248
49
131
133
129
248
63
125
124
126
248
63
125
124
126
248
49
126
125
126
248
49
126
125
126
248
49
126
125
126
248
49
126
125
126
248
49
126
125
126
248
49
126
125
126
248
49
126
125
126
248
50
126
125
127
248
50
126
125
127
248
50
126
125
127
248
50
126
125
127
248
50
126
125
127
248
51
126
126
127
248
53
127
127
127
248
55
128
128
127
248
60
130
130
128
248
63
131
132
128
248
50
132
133
129
248
51
132
134
129
248
51
132
134
129
248
52
133
134
129
248
51
132
134
129
248
50
132
133
129
248
63
130
132
129
248
59
129
130
128
248
53
127
127
127
248
50
126
125
127
248
63
125
124
126
248
63
125
124
126
248
63
125
31870
248
63
125
124
126
248
63
125
124
126
248
63
125
124
126
248
63
32124
126
248
48
125
125
126
248
50
126
125
127
248
50
126
125
127
248
50
126
125
127
248
50
126
125
127
248
50
126
125
127
248
50
126
125
127
248
50
126
125
127
248
50
126
125
127
248
50
126
125
127
248
50
126
125
127
248
50
126
125
127
248
50
126
125
127
248
51
126
126
127
248
51
126
126
127
248
51
126
126
127
248
51
126
126
127
248
52
127
126
127
248
55
128
128
127
248
59
129
130
128
248
60
130
130
128
248
60
130
130
128
248
58
129
129
128
248
54
127
128
127
248
51
126
126
127
248
50
126
125
127
248
51
126
126
127
248
51
126
126
127
248
51
126
126
127
248
51
126
126
127
252
115
7943
33
48
248
51
126
126
127
255
30
31
0
248
51
126
126
127
248
51
126
126
127
250
122
0
248
50
126
125
127
248
49
32125
127
248
50
130
133
131
248
62
139
147
136
249
72
79
248
63
140
38023
248
51
132
134
129
248
48
126
124
126
248
63
125
124
126
248
48
126
124
126
248
49
126
125
126
248
49
126
125
126
248
49
126
125
126
248
12670
125
126
248
49
126
125
126
248
49
126
125
126
248
50
126
125
127
248
50
126
125
127
248
50
126
125
127
248
50
126
125
127
248
50
126
125
127
248
51
126
126
127
248
53
127
127
127
248
55
128
128
127
248
15490
33408
248
63
131
132
128
248
50
132
133
129
248
51
132
134
129
248
52
133
134
129
248
52
133
134
129
248
51
132
134
129
248
50
132
133
129
248
63
130
132
129
248
59
129
130
128
248
54
127
128
127
248
51
126
126
127
248
63
125
124
126
248
63
125
124
126
248
63
125
124
126
248
63
125
124
126
248
63
125
31870
248
63
125
124
126
248
63
8223870
248
48
125
125
126
248
49
125
125
127
248
12926
125
127
248
50
126
125
127
248
50
126
125
127
248
50
126
125
127
248
50
126
125
127
248
50
126
125
127
248
50
126
125
127
248
50
126
125
127
248
50
126
125
127
248
50
126
125
127
248
51
126
126
127
248
51
126
126
127
248
51
126
126
127
248
51
126
126
127
248
51
126
126
127
248
13182
126
127
248
53
127
127
127
248
58
129
129
128
248
60
130
130
128
248
60
130
130
128
248
15233
130
128
248
56
128
128
128
248
51
126
126
127
248
51
126
126
127
248
51
126
126
127
248
51
126
126
127
248
51
126
126
127
248
13182
126
127
248
51
126
126
127
248
51
126
126
127
248
51
126
126
127
248
50
126
125
127
248
49
125
125
127
248
63
129
132
130
248
59
138
146
135
249
72
79
248
48
140
148
136
248
53
132
135
130
248
49
126
125
126
248
63
125
124
126
252
29471
7
8496
255
30
31
0
248
48
126
124
126
248
49
126
32126
248
49
126
125
126
250
31232
248
49
126
125
126
248
49
126
125
126
248
49
126
125
126
248
50
126
125
127
248
50
126
125
127
248
50
126
125
127
248
50
126
125
127
248
50
126
125
127
248
50
126
125
127
248
51
126
126
127
248
53
127
127
127
248
55
128
32895
248
59
129
130
128
248
63
131
132
128
248
49
131
133
129
248
51
132
134
129
248
51
132
134
129
248
52
133
134
129
248
13188
134
129
248
50
132
34177
248
48
131
132
129
248
59
8487552
248
56
128
128
128
248
51
126
126
127
248
63
125
124
126
248
63
125
124
126
248
63
125
124
126
248
63
125
31870
248
63
125
124
126
248
63
125
124
126
248
63
125
124
126
248
48
125
125
126
248
48
125
125
126
248
12926
125
127
248
50
126
125
127
248
50
126
125
127
248
50
32381
127
248
50
126
125
127
248
50
126
125
127
248
50
32381
127
248
50
126
125
127
248
50
126
125
127
248
50
32381
127
248
50
126
125
127
248
51
126
126
127
248
51
126
32383
248
51
126
126
127
248
51
126
126
127
248
51
126
126
127
248
53
127
127
127
248
58
129
129
128
248
60
130
130
128
248
60
130
130
128
248
59
129
130
128
248
56
128
128
128
248
51
126
126
127
248
51
126
126
127
248
51
126
126
127
248
51
126
126
127
248
51
126
126
127
248
51
126
32383
248
51
126
126
127
248
51
32382
127
248
51
126
32383
248
51
126
126
127
248
49
125
125
127
248
62
129
131
130
248
58
138
145
135
248
12684
149
136
249
72
79
248
55
133
136
130
248
49
126
125
126
248
62
125
123
126
248
12414
124
126
248
49
126
125
126
248
49
32381
126
248
12670
125
126
248
49
126
125
126
248
49
126
125
126
248
50
126
125
127
248
50
32381
127
248
50
126
125
127
248
50
126
125
127
252
115
31
7
33
48
248
50
126
125
127
16719391
0
248
50
126
125
127
248
13182
126
127
250
122
0
248
52
127
126
127
248
14208
128
127
248
59
129
130
128
248
61
130
131
128
248
49
131
133
129
248
13188
134
129
248
51
132
134
129
248
13445
134
129
248
51
132
134
129
248
12932
133
129
248
48
131
132
129
248
15233
130
128
248
56
128
128
128
63539
126
126
127
248
48
125
124
127
248
63
125
124
126
248
63
125
124
126
248
63
125
124
126
248
63
125
124
126
248
63
125
124
126
248
16253
124
126
248
12413
32126
248
49
125
125
127
248
50
126
125
127
248
50
126
125
127
248
50
126
125
127
248
50
126
125
127
248
50
126
125
127
248
50
126
125
127
248
50
126
125
127
248
50
126
125
127
248
50
126
125
127
248
50
126
125
127
248
51
126
126
127
248
13182
126
127
248
51
126
126
127
248
13182
126
127
248
51
126
126
127
248
51
126
126
127
248
53
127
127
127
248
14977
129
128
248
60
130
130
128
248
60
130
130
128
248
59
129
130
128
63544
128
128
128
248
13439
126
127
248
13182
126
127
248
51
126
126
127
248
51
126
126
127
248
13182
126
127
248
51
126
126
127
248
13182
126
127
248
51
126
126
127
248
51
126
126
127
248
51
126
126
127
63537
125
125
127
248
60
128
130
130
248
14729
145
135
248
12941
38280
249
72
79
248
57
134
137
130
248
12670
125
126
248
62
125
123
126
248
63
125
124
126
248
49
126
125
126
248
49
126
125
126
248
49
126
125
126
248
49
126
32126
248
49
126
125
126
248
49
126
125
126
248
12926
125
127
248
50
126
125
127
248
50
126
125
127
248
50
126
125
127
248
12926
125
127
248
51
126
126
127
248
52
127
126
127
248
55
128
128
127
248
59
129
33408
248
15746
131
128
248
49
131
133
129
248
51
33926
129
248
51
132
134
129
252
115
31
7
8496
248
52
133
134
129
255
30
31
0
248
51
132
134
129
248
12932
133
129
250
122
0
248
48
131
132
129
248
59
129
130
128
248
14464
128
128
248
51
126
32383
248
48
125
124
127
248
63
125
124
126
248
16253
31870
248
63
125
124
126
248
63
125
124
126
248
63
8223870
248
63
125
124
126
248
48
125
125
126
248
48
125
125
126
248
50
126
125
127
248
50
126
125
127
248
50
126
125
127
248
50
126
125
127
248
12926
125
127
248
50
126
125
127
248
50
126
125
127
248
12926
125
127
248
50
32381
127
248
50
126
125
127
248
50
126
125
127
248
13182
126
127
248
51
126
126
127
248
51
32382
127
248
51
126
126
127
248
51
126
126
127
248
13695
32639
248
57
128
129
128
248
59
129
130
128
248
60
130
130
128
248
59
129
130
128
248
56
128
128
128
248
13439
126
127
248
50
126
125
127
248
51
126
126
127
248
51
126
126
127
248
51
126
126
127
248
51
126
126
127
248
51
126
126
127
248
13182
126
127
248
13182
126
127
248
51
126
126
127
248
49
32125
127
248
59
128
130
129
248
54
136
144
134
248
51
36246
136
249
72
79
248
59
134
138
131
248
13183
126
126
248
62
125
123
126
248
63
125
124
126
248
49
126
125
126
248
49
126
125
126
248
49
126
32126
248
12670
125
126
248
49
32381
126
248
49
126
125
126
248
12926
32127
248
50
126
125
127
248
12926
32127
248
50
126
125
127
248
50
32381
127
248
51
126
126
127
248
52
127
126
127
248
55
128
128
127
248
59
129
130
128
248
61
130
131
128
248
12675
34177
248
51
132
134
129
248
51
132
134
129
248
13445
34433
248
13188
134
129
248
50
8684929
248
12419
132
129
248
59
33154
128
248
56
128
128
128
248
51
126
126
127
248
48
125
124
127
248
63
125
124
126
248
63
125
124
126
248
63
125
124
126
64627
31
7
33
48
255
30
31
0
248
63
125
124
126
248
63
125
124
126
248
63
125
124
126
64122
0
248
16253
124
126
248
49
32125
127
248
50
126
125
127
248
50
32381
127
248
50
126
125
127
248
50
126
125
127
248
50
126
125
127
248
50
32381
127
248
50
126
125
127
248
50
126
125
127
248
50
126
125
127
248
50
126
125
127
248
50
126
125
127
248
51
32382
127
248
51
126
126
127
248
51
126
126
127
248
13182
32383
248
51
32382
127
248
53
127
127
127
248
57
128
129
128
248
15233
130
128
248
60
130
130
128
248
59
129
130
128
248
56
32896
128
248
52
127
126
127
248
51
126
32383
248
51
126
126
127
248
51
126
126
127
248
51
126
126
127
248
51
126
126
127
248
51
126
126
127
248
51
126
126
127
248
51
126
126
127
248
51
32382
127
248
49
125
125
127
248
57
127
33153
248
52
34958
134
248
51
141
150
136
249
72
79
248
61
135
35715
248
52
127
126
127
248
62
125
123
126
248
63
125
124
126
248
49
126
125
126
248
49
126
125
126
248
49
126
125
126
248
49
126
125
126
248
49
126
125
126
248
49
32381
126
248
50
32381
127
248
50
32381
127
248
50
126
125
127
248
50
126
125
127
248
50
126
125
127
248
51
126
126
127
248
52
127
126
127
248
55
128
128
127
248
58
33153
128
248
61
130
131
128
248
49
131
133
129
248
51
33926
129
248
51
132
134
129
248
52
133
134
129
248
51
132
134
129
248
50
33925
129
248
48
131
132
129
248
61
130
131
128
248
56
128
128
128
248
51
126
126
127
248
49
125
125
127
248
63
125
124
126
248
63
125
124
126
248
63
125
124
126
248
63
125
31870
248
63
125
124
126
248
63
125
124
126
248
48
125
125
126
248
48
125
125
126
248
50
126
125
127
248
50
32381
127
248
50
126
125
127
248
50
126
125
127
248
50
32381
127
252
115
31
7
33
48
248
50
126
125
127
255
7711
0
248
50
32381
127
248
50
126
125
127
250
122
0
248
50
126
125
127
248
50
32381
127
248
51
126
126
127
248
51
126
32383
248
51
32382
127
248
51
126
126
127
248
51
126
126
127
248
51
126
126
127
248
53
127
127
127
248
57
32897
128
248
59
129
130
128
248
60
130
130
128
248
59
129
130
128
248
56
128
128
128
248
53
127
127
127
248
51
126
32383
248
51
32382
127
248
51
126
126
127
248
51
32382
127
248
51
126
126
127
248
51
126
126
127
248
51
126
126
127
248
51
126
32383
248
51
126
126
127
248
49
125
125
127
248
56
127
128
129
248
50
135
141
134
248
51
141
150
136
249
72
79
248
48
136
140
132
248
54
32895
127
248
62
125
123
126
248
63
125
124
126
248
49
126
125
126
248
49
32381
126
248
49
126
32126
248
49
126
32126
248
49
126
125
126
248
49
126
32126
248
49
126
125
126
248
50
126
32127
248
50
126
125
127
248
50
32381
127
248
50
126
125
127
248
51
126
126
127
248
52
127
126
127
248
55
128
128
127
248
58
129
33152
248
61
130
131
128
248
48
131
132
129
248
51
132
134
129
248
51
132
34433
248
52
133
134
129
248
51
33926
129
248
50
132
133
129
248
48
131
132
129
248
61
130
131
128
248
57
128
129
128
248
52
127
32383
248
49
125
125
127
248
63
125
124
126
248
63
125
124
126
248
63
125
124
126
248
63
125
124
126
248
63
125
124
126
248
63
125
31870
248
48
125
125
126
248
48
125
32126
248
50
126
125
127
248
50
126
125
127
248
50
126
32127
248
50
126
125
127
248
50
126
125
127
248
50
126
125
127
248
50
126
32127
248
50
126
125
127
248
50
126
125
127
248
50
126
32127
248
50
126
125
127
248
51
126
126
127
248
51
126
126
127
248
51
126
126
127
248
51
126
126
127
252
115
31
7
33
48
248
51
126
126
127
255
7711
0
248
53
127
32639
248
57
128
129
128
250
122
0
248
59
129
33408
248
60
130
33408
248
59
129
130
128
248
57
128
33152
248
53
127
127
127
248
51
126
126
127
248
51
126
126
127
248
51
126
126
127
248
51
126
126
127
248
51
126
126
127
248
51
126
126
127
248
51
126
32383
248
51
126
126
127
248
51
126
32383
248
49
125
125
127
248
55
127
128
128
248
63
134
140
133
248
51
141
150
136
249
72
79
248
51
137
142
132
248
55
128
32895
248
62
125
123
126
248
63
125
31870
248
49
126
32126
248
49
126
125
126
248
49
126
32126
248
49
126
125
126
248
49
126
125
126
248
49
126
125
126
248
49
126
125
126
248
50
126
125
127
248
50
126
125
127
248
50
126
125
127
248
50
126
32127
248
50
126
125
127
248
52
127
126
127
248
54
128
127
127
248
58
129
33152
248
61
130
33664
248
48
131
132
129
248
51
132
134
129
248
51
132
134
129
248
52
133
134
129
248
51
132
134
129
248
50
132
133
129
248
48
131
132
129
248
61
130
131
128
248
57
128
129
128
248
53
127
32639
248
49
125
125
127
248
63
125
124
126
248
63
125
124
126
248
63
125
124
126
248
63
125
124
126
248
63
125
124
126
248
63
125
124
126
248
63
125
124
126
248
49
125
125
127
248
49
125
125
127
248
50
126
125
127
248
50
126
125
127
248
50
126
125
127
248
50
126
125
127
248
50
126
125
127
248
50
126
125
127
248
50
126
125
127
248
50
126
125
127
248
50
126
125
127
248
50
126
125
127
248
51
126
126
127
248
51
126
126
127
248
51
126
126
127
248
51
126
126
127
248
51
126
126
127
248
53
127
127
127
248
57
128
129
128
248
59
129
130
128
248
60
130
130
128
248
59
129
33408
248
57
128
129
128
248
53
127
127
127
248
51
126
126
127
248
51
126
126
127
248
51
126
126
127
252
29471
7
33
48
255
30
31
0
248
51
126
126
127
248
51
126
126
127
248
51
126
126
32762
122
0
248
51
126
126
127
248
51
126
126
127
248
51
126
126
127
248
49
125
125
127
248
53
126
127
128
248
62
134
139
133
248
51
141
150
136
249
72
79
248
53
137
143
133
248
55
128
128
127
248
62
125
123
126
248
63
125
31870
248
49
126
125
126
248
49
126
125
126
248
49
126
125
126
248
49
126
125
126
248
49
126
125
126
248
49
126
125
126
248
49
126
125
126
248
50
126
125
127
248
50
126
125
127
248
50
126
125
127
248
50
126
125
127
248
51
126
126
127
248
52
127
126
127
248
54
128
32639
248
58
129
129
128
248
61
130
131
128
248
48
131
132
129
248
50
132
133
129
248
51
132
134
129
248
52
133
134
129
248
52
133
134
129
248
50
132
133
129
248
49
131
133
129
248
61
130
33664
248
57
128
129
128
248
53
127
127
127
248
49
125
125
127
248
63
125
124
126
248
63
125
124
126
248
63
125
124
126
248
63
125
124
126
248
63
125
124
126
248
63
125
124
126
248
63
125
124
126
248
48
125
125
126
248
50
126
125
127
248
50
126
125
127
248
50
126
125
127
248
50
126
125
127
248
50
126
125
127
248
50
126
125
127
248
50
126
125
127
248
50
126
125
127
248
50
126
125
127
248
50
126
125
127
248
50
126
125
127
248
51
126
126
127
248
51
126
126
127
248
51
126
126
127
248
51
126
32383
248
51
126
126
127
248
53
127
127
127
248
56
128
128
128
248
59
129
130
128
248
60
130
130
128
248
59
129
130
128
248
57
128
129
128
248
53
127
127
127
248
51
126
126
127
248
51
126
32383
248
51
126
126
127
248
51
126
126
127
248
51
126
126
127
248
51
126
126
127
248
51
126
126
127
248
51
126
126
127
248
51
126
126
127
248
49
125
125
127
248
53
126
127
128
248
59
133
138
132
248
49
140
149
136
252
115
31
7
33
48
249
72
79
248
55
138
144
133
255
30
31
0
248
58
129
129
128
248
62
125
123
126
250
122
0
248
63
125
124
126
248
49
126
125
126
248
49
126
125
126
248
49
126
125
126
248
49
126
125
126
248
49
126
125
126
248
49
126
125
126
248
49
126
125
126
248
49
126
125
126
248
50
126
125
127
248
50
126
125
127
248
50
126
125
127
248
51
126
126
127
248
51
126
126
127
248
53
127
32639
248
58
129
129
128
248
61
130
131
128
248
63
131
132
128
248
50
132
133
129
248
51
132
134
129
248
52
133
134
129
248
51
132
134
129
248
51
132
134
129
248
49
131
133
129
248
61
130
131
128
248
57
128
129
128
248
53
127
127
127
248
50
126
125
127
248
63
125
124
126
248
63
125
124
126
248
63
125
124
126
248
63
125
124
126
248
63
125
124
126
248
63
125
124
126
248
48
125
125
126
248
49
125
125
127
248
50
126
125
127
248
50
126
125
127
248
50
126
125
127
248
50
126
125
127
248
50
126
125
127
248
50
126
125
127
248
50
126
125
127
248
50
126
125
127
248
50
126
125
127
248
50
126
125
127
248
50
126
125
127
248
51
126
126
127
248
51
126
126
127
248
51
126
126
127
248
51
126
126
127
248
51
126
126
127
248
52
127
126
127
248
56
128
128
128
248
59
129
130
128
248
60
130
130
128
248
59
129
130
128
248
57
128
129
128
248
53
127
127
127
248
51
126
126
127
248
51
126
126
127
248
51
126
126
127
248
51
126
126
127
248
51
126
126
127
248
51
126
126
127
248
51
126
126
127
248
51
126
126
127
248
51
126
126
127
248
50
126
125
127
248
52
126
126
128
248
57
132
137
132
248
49
140
149
136
249
72
79
248
57
138
145
134
248
59
129
130
128
248
62
125
123
126
248
63
125
124
126
248
49
126
125
126
248
49
126
125
126
248
49
126
125
126
248
49
126
125
126
248
49
126
125
126
248
49
126
32126
252
115
31
7
33
48
248
50
126
125
127
255
30
31
0
248
50
126
125
127
248
50
126
125
127
250
31232
248
50
126
125
127
248
50
126
125
127
248
50
126
125
127
248
51
126
126
127
248
53
127
127
127
248
58
129
129
128
248
61
130
131
128
248
63
131
132
128
248
50
132
133
129
248
51
132
134
129
248
52
133
134
129
248
52
133
134
129
248
51
132
134
129
248
49
131
133
129
248
61
130
131
128
248
58
129
129
128
248
53
127
127
127
248
50
126
125
127
248
63
125
124
126
248
63
125
124
126
248
63
125
124
126
248
63
125
124
126
248
63
125
124
126
248
63
125
124
126
248
63
125
124
126
248
48
125
125
126
248
50
126
125
127
248
50
126
125
127
248
50
126
125
127
248
50
126
125
127
248
50
126
125
127
248
50
126
125
127
248
50
126
125
127
248
50
126
125
127
248
50
126
125
127
248
50
126
125
127
248
50
126
125
127
248
51
126
126
127
248
51
126
126
127
248
51
126
126
127
248
51
126
126
127
248
51
126
126
127
248
52
127
126
127
248
56
128
128
128
248
59
129
130
128
248
60
130
130
128
248
59
129
130
128
248
57
128
129
128
248
53
127
127
127
248
51
126
126
127
248
13182
126
127
248
51
126
126
127
248
51
126
126
127
248
51
126
126
127
248
51
126
126
127
248
51
126
126
127
248
51
126
126
127
248
51
126
126
127
248
50
126
125
127
248
52
126
126
128
248
55
131
136
132
248
49
140
149
136
249
72
79
248
59
139
37510
248
61
130
131
128
248
63
125
124
126
248
63
125
124
126
248
49
126
125
126
248
49
126
125
126
248
49
126
125
126
248
49
126
125
126
248
49
126
125
126
248
49
126
125
126
248
50
126
125
127
248
50
126
125
127
248
50
8289663
248
50
126
125
127
248
50
126
125
127
248
50
32381
127
248
51
126
126
127
248
53
127
127
127
248
57
129
129
127
248
60
130
130
128
248
16259
132
128
64627
31
7
33
48
255
30
31
0
248
50
132
133
129
248
51
132
134
129
248
52
133
134
129
250
122
0
248
52
133
134
129
248
51
132
134
129
248
49
131
133
129
248
62
130
131
129
248
58
129
129
128
248
53
127
127
127
248
50
126
125
127
248
63
125
124
126
248
63
125
124
126
248
63
125
124
126
248
63
125
31870
248
63
125
124
126
248
63
125
124
126
248
63
125
124
126
248
48
125
125
126
248
49
126
125
126
248
50
126
125
127
248
50
126
125
127
248
50
126
125
127
248
50
126
125
127
248
50
126
32127
248
50
126
125
127
248
50
126
125
127
248
50
126
125
127
248
50
126
125
127
248
50
126
125
127
248
50
126
125
127
248
51
126
126
127
248
51
126
126
127
248
51
126
126
127
248
51
126
126
127
248
52
127
126
127
248
56
128
128
128
248
59
129
130
128
248
60
130
130
128
248
60
130
130
128
248
58
129
129
128
248
53
127
127
127
248
51
126
126
127
248
50
126
125
127
248
51
126
126
127
248
51
126
126
127
248
51
126
126
127
248
51
126
126
127
248
51
126
126
127
248
51
126
126
127
248
51
126
126
127
248
50
126
125
127
248
52
126
126
128
248
53
131
135
131
248
63
139
38024
249
72
79
248
61
139
147
135
248
48
131
132
129
248
63
125
124
126
248
63
125
124
126
248
48
126
124
126
248
49
126
125
126
248
49
126
125
126
248
49
126
125
126
248
49
126
125
126
248
49
126
125
126
248
49
126
125
126
248
50
126
125
127
248
50
126
125
127
248
50
126
125
127
248
50
126
125
127
248
50
126
125
127
248
51
126
126
127
248
53
127
127
127
248
56
128
129
127
248
60
130
130
128
248
63
131
132
128
248
50
132
133
129
248
51
132
134
129
248
52
133
134
129
248
52
133
134
129
248
51
132
134
129
248
50
132
133
129
248
63
130
132
129
248
58
129
129
128
248
53
127
127
127
248
50
126
125
127
252
115
31
7
33
48
248
63
125
124
126
255
30
31
0
248
63
125
124
126
248
63
125
124
126
250
122
0
248
63
125
124
126
248
63
125
124
126
248
63
125
124
126
248
63
125
124
126
248
48
125
125
126
248
49
125
125
127
248
50
126
125
127
248
50
126
125
127
248
50
126
125
127
248
50
126
125
127
248
50
126
125
127
248
50
126
125
127
248
50
126
125
127
248
50
126
125
127
248
50
126
125
127
248
50
126
125
127
248
51
126
126
127
248
51
126
126
127
248
51
126
126
127
248
51
126
126
127
248
51
126
126
127
248
52
127
126
127
248
55
128
128
127
248
59
129
130
128
248
60
130
130
128
248
60
130
130
128
248
58
129
129
128
248
54
127
128
127
248
51
126
126
127
248
50
126
125
127
248
51
126
126
127
248
13182
126
127
248
51
126
126
127
248
51
126
126
127
248
51
126
126
127
248
51
126
126
127
248
51
126
126
127
248
50
126
125
127
248
50
125
126
127
248
51
130
134
131
248
62
139
147
136
249
72
79
248
62
140
147
135
248
49
131
133
129
248
48
126
124
126
248
63
125
124
126
248
49
126
125
126
248
49
126
125
126
248
49
126
125
126
248
49
126
125
126
248
49
126
125
126
248
49
126
125
126
248
50
126
125
127
248
50
126
125
127
248
12926
125
127
248
50
126
125
127
248
50
126
125
127
248
50
126
125
127
248
51
126
126
127
248
53
127
127
127
248
55
128
128
127
248
60
130
130
128
248
63
131
132
128
248
12932
133
129
248
51
132
134
129
248
51
132
34433
248
52
133
34433
248
51
132
134
129
248
50
132
133
129
248
63
8553601
248
59
129
130
128
248
53
127
127
127
248
50
126
125
127
248
63
125
124
126
248
63
125
124
126
248
63
125
124
126
248
63
125
124
126
248
63
125
124
126
248
63
125
124
126
248
63
125
124
126
248
48
125
125
126
248
49
125
125
127
248
50
126
125
127
252
115
7943
33
48
248
50
126
125
127
255
30
31
0
248
50
126
125
127
248
50
126
32127
250
122
0
248
50
126
125
127
248
50
126
125
127
248
50
126
125
127
248
50
126
125
127
248
50
126
125
127
248
50
126
125
127
248
51
126
126
127
248
51
126
126
127
248
51
126
126
127
248
51
126
126
127
248
51
126
126
127
248
52
127
126
127
248
55
128
128
127
248
59
129
130
128
248
60
130
130
128
248
60
130
130
128
248
58
129
33152
248
55
127
128
128
248
51
126
126
127
248
50
126
125
127
248
51
126
126
127
248
51
126
126
127
248
51
126
126
127
248
51
126
126
127
248
51
126
126
127
248
51
126
126
127
248
51
126
126
127
248
50
126
125
127
248
49
125
125
127
248
50
130
133
131
248
62
139
147
136
249
72
79
248
63
140
148
135
248
51
132
134
129
248
48
126
124
126
248
63
125
124
126
248
49
126
125
126
248
49
126
125
126
248
49
126
125
126
248
49
126
125
126
248
49
126
125
126
248
49
126
125
126
248
50
126
32127
248
50
126
32127
248
50
126
125
127
248
50
126
125
127
248
12926
125
127
248
12926
125
127
248
51
32382
127
248
53
127
127
127
248
55
128
128
127
248
60
130
130
128
248
63
33668
128
248
50
132
133
129
248
51
132
134
129
248
52
133
34433
248
52
133
134
129
248
51
132
134
129
248
50
132
133
129
248
48
131
132
129
248
59
129
130
128
248
54
32640
127
248
51
126
126
127
248
63
125
124
126
248
63
125
31870
248
63
125
124
126
248
63
125
124
126
248
63
125
124
126
248
63
125
124
126
248
63
125
124
126
248
48
125
125
126
248
48
125
125
126
248
50
126
125
127
248
50
32381
127
248
50
126
125
127
248
50
126
125
127
248
50
126
125
127
248
12926
125
127
248
50
32381
127
248
50
126
125
127
248
50
126
125
127
248
50
126
125
127
248
51
126
126
127
248
51
126
126
127
64627
31
7
33
48
255
30
31
0
248
51
126
126
127
248
51
126
126
127
248
51
126
126
127
250
122
0
248
13182
126
127
248
53
127
127
127
248
58
129
129
128
248
60
130
130
128
248
60
130
130
128
248
15233
130
128
248
56
128
128
128
248
51
126
126
127
248
13182
126
127
248
51
126
126
127
248
51
126
126
127
248
51
126
126
127
248
51
126
126
127
248
51
126
126
127
248
51
126
126
127
248
51
126
126
127
248
50
126
32127
248
49
125
125
127
248
63
129
132
130
248
15242
146
135
248
49
140
149
136
249
72
79
248
13957
135
130
248
49
126
125
126
248
63
32124
126
248
48
126
124
126
248
49
126
125
126
248
49
126
32126
248
49
126
125
126
248
49
126
125
126
248
49
126
125
126
248
50
126
125
127
248
50
126
125
127
248
50
126
125
127
248
50
126
125
127
248
12926
125
127
248
50
126
125
127
248
51
126
32383
248
13695
127
127
248
55
128
128
127
248
15233
130
128
248
63
131
132
128
248
12675
133
129
248
13188
134
129
248
51
33926
129
63540
133
134
129
248
51
132
134
129
248
12932
133
129
248
48
131
132
129
248
59
129
130
128
248
56
128
128
128
248
13182
126
127
248
48
125
124
127
248
63
125
124
126
248
63
125
124
126
248
16253
124
126
248
63
32124
126
248
63
125
124
126
248
63
125
124
126
248
48
125
125
126
248
48
125
125
126
248
49
126
125
126
248
12926
125
127
248
50
126
125
127
248
50
126
125
127
248
12926
125
127
248
50
126
125
127
248
12926
125
127
248
50
126
125
127
248
50
126
125
127
248
50
126
125
127
248
50
126
125
127
248
51
32382
127
248
13182
126
127
248
51
126
126
127
248
13182
126
127
248
13182
32383
248
53
127
127
127
248
58
129
129
128
248
15490
130
128
248
60
130
130
128
248
59
129
130
128
248
56
128
128
128
252
115
31
7
33
48
248
13439
126
127
65310
31
0
248
13182
126
127
248
51
126
126
127
250
122
0
248
51
126
126
127
248
51
126
126
127
248
51
126
126
127
248
51
126
126
127
248
13182
32383
248
51
126
126
127
248
51
126
126
127
248
49
125
125
127
248
61
128
131
130
248
14729
37255
248
12684
38280
249
72
79
248
14213
136
130
248
49
126
125
126
248
62
125
123
126
248
63
125
124
126
248
12670
125
126
248
49
126
125
126
248
49
126
125
126
248
49
126
125
126
248
49
126
125
126
248
12670
125
126
248
50
126
32127
248
50
126
125
127
248
50
126
125
127
248
50
126
125
127
248
12926
125
127
248
51
126
126
127
248
52
127
126
127
248
55
128
128
127
248
59
129
130
128
248
61
130
131
128
248
12675
133
129
248
51
132
134
129
248
51
132
134
129
248
52
34182
129
248
51
132
134
129
248
12932
133
129
248
12419
132
129
248
59
129
130
128
248
56
128
128
128
248
13182
126
127
248
63
125
124
126
248
63
125
124
126
248
63
32124
126
248
63
125
124
126
248
63
125
124
126
248
63
125
124
126
248
63
125
124
126
248
48
125
125
126
248
12669
125
127
248
50
126
125
127
248
50
126
125
127
248
50
126
125
127
248
50
8289663
248
50
126
125
127
248
50
126
125
127
248
12926
125
127
248
12926
125
127
248
50
126
125
127
248
50
126
125
127
248
51
126
126
127
248
51
126
126
127
248
51
32382
127
248
51
126
126
127
248
51
126
126
127
248
51
126
126
127
248
13695
127
127
248
58
129
129
128
248
59
129
130
128
248
60
130
130
128
248
59
33154
128
248
56
128
128
128
248
52
127
126
127
248
50
126
32127
248
51
126
126
127
248
51
126
126
127
248
51
126
126
127
248
13182
126
127
248
51
32382
127
248
51
8289919
248
51
126
126
127
248
51
32382
127
252
115
31
7
33
48
248
49
125
125
127
255
30
31
0
248
59
128
130
129
248
56
35216
135
250
122
0
248
50
36245
136
249
72
79
248
58
134
137
131
248
51
127
126
126
248
62
125
123
126
248
63
125
124
126
248
49
126
125
126
248
49
126
125
126
248
49
126
125
126
248
49
126
125
126
248
49
32381
126
248
49
126
125
126
248
50
126
125
127
248
50
8289663
248
50
8289663
248
50
126
125
127
248
50
32381
127
248
51
126
126
127
248
52
127
126
127
248
55
128
32895
248
59
129
130
128
248
61
130
131
128
248
49
131
133
129
248
51
132
134
129
248
51
33926
129
248
52
8750721
248
51
132
134
129
248
50
132
133
129
248
48
131
132
129
248
59
129
130
128
248
56
32896
128
248
51
126
126
127
248
48
125
124
127
248
63
125
124
126
248
63
125
124
126
248
63
32124
126
248
63
125
124
126
248
63
125
124
126
248
63
32124
126
248
48
125
125
126
248
48
125
125
126
248
50
126
125
127
248
50
126
125
127
248
50
126
125
127
248
50
32381
127
248
50
8289663
248
50
32381
127
248
50
126
125
127
248
50
126
125
127
248
50
126
32127
248
50
126
125
127
248
51
126
126
127
248
51
126
126
127
248
51
126
126
127
248
51
126
126
127
248
51
32382
127
248
51
126
126
127
248
53
32639
127
248
57
128
33152
248
59
33154
128
248
60
130
130
128
248
59
33154
128
248
56
32896
128
248
52
127
126
127
248
51
126
126
127
248
51
126
126
127
248
51
32382
127
248
51
126
126
127
248
51
32382
127
248
51
126
126
127
248
51
126
126
127
248
51
8289919
248
51
126
126
127
248
49
32125
127
248
58
128
129
129
248
53
136
143
134
248
51
141
150
136
249
72
79
248
60
34698
131
248
52
127
126
127
248
62
32123
126
248
63
125
124
126
248
49
32381
126
248
49
32381
126
248
49
32381
126
64627
31
7
33
48
255
30
31
0
248
49
126
125
126
248
49
32381
126
248
49
32381
32506
122
0
248
50
126
125
127
248
50
126
125
127
248
50
126
125
127
248
50
126
125
127
248
50
126
32127
248
51
126
126
127
248
52
127
126
127
248
55
128
32895
248
59
129
130
128
248
61
130
131
128
248
49
33669
129
248
51
132
134
129
248
51
132
134
129
248
52
133
134
129
248
51
132
134
129
248
50
132
133
129
248
48
131
132
129
248
59
129
130
128
248
56
128
128
128
248
51
126
126
127
248
49
125
125
127
248
63
125
124
126
248
63
125
124
126
248
63
125
124
126
248
63
125
124
126
248
63
125
31870
248
63
32124
126
248
48
125
125
126
248
48
125
125
126
248
50
126
125
127
248
50
126
125
127
248
50
126
125
127
248
50
126
125
127
248
50
126
32127
248
50
126
125
127
248
50
126
125
127
248
50
126
32127
248
50
126
125
127
248
50
126
125
127
248
50
126
125
127
248
51
126
126
127
248
51
126
126
127
248
51
126
126
127
248
51
126
126
127
248
51
126
126
127
248
53
127
127
127
248
57
128
33152
248
59
129
33408
248
60
33410
128
248
59
33154
128
248
56
128
32896
248
53
127
127
127
248
51
126
126
127
248
51
126
126
127
248
51
126
126
127
248
51
126
126
127
248
51
126
126
127
248
51
32382
127
248
51
126
126
127
248
51
126
126
127
248
51
126
126
127
248
49
125
125
127
248
57
127
129
129
248
51
135
142
134
248
51
141
150
136
249
72
79
248
63
135
35972
248
53
127
127
127
248
62
125
123
126
248
63
125
31870
248
49
126
125
126
248
49
126
125
126
248
49
126
125
126
248
49
126
32126
248
49
126
125
126
248
49
126
125
126
248
50
126
32127
248
50
126
125
127
248
50
126
125
127
248
50
126
125
127
248
50
126
125
127
248
51
126
126
127
248
52
127
126
127
252
29471
7
33
48
248
55
128
32895
65310
31
0
248
58
129
129
128
248
61
130
131
128
250
122
0
248
48
131
33921
248
51
132
134
129
248
51
132
34433
248
52
133
134
129
248
51
132
134
129
248
50
132
133
129
248
48
131
132
129
248
61
130
131
128
248
56
128
128
128
248
51
126
32383
248
49
125
125
127
248
63
125
124
126
248
63
125
124
126
248
63
125
124
126
248
63
125
124
126
248
63
125
31870
248
63
125
124
126
248
63
125
31870
248
49
125
125
127
248
50
126
32127
248
50
126
125
127
248
50
126
125
127
248
50
126
32127
248
50
126
125
127
248
50
126
125
127
248
50
126
125
127
248
50
126
32127
248
50
126
125
127
248
50
126
125
127
248
51
126
32383
248
51
126
126
127
248
51
126
126
127
248
51
126
126
127
248
51
126
126
127
248
51
126
126
127
248
53
127
32639
248
57
128
129
128
248
59
129
33408
248
61
130
131
128
248
59
129
130
128
248
57
128
129
128
248
53
127
127
127
248
51
126
126
127
248
51
126
126
127
248
51
126
126
127
248
51
126
32383
248
51
126
126
127
248
51
126
126
127
248
51
126
32383
248
51
126
126
127
248
51
126
126
127
248
49
125
32127
248
56
127
128
129
248
50
135
141
134
248
51
141
150
136
249
72
79
248
49
136
141
132
248
54
128
32639
248
62
125
31614
248
63
125
124
126
248
49
126
125
126
248
49
126
125
126
248
49
126
125
126
248
49
126
125
126
248
49
126
125
126
248
49
126
125
126
248
50
126
125
127
248
50
126
125
127
248
50
126
125
127
248
50
126
125
127
248
50
126
125
127
248
51
126
32383
248
52
127
126
127
248
55
128
128
127
248
58
129
129
128
248
61
130
131
128
248
48
131
132
129
248
51
132
134
129
248
51
132
34433
248
52
133
134
129
248
51
132
134
129
248
50
132
133
129
248
48
131
132
129
252
115
31
7
33
48
248
61
130
131
128
255
30
31
0
248
57
128
129
128
248
52
127
126
127
250
122
0
248
49
125
125
127
248
63
125
124
126
248
63
125
124
126
248
63
125
124
126
248
63
125
124
126
248
63
125
124
126
248
63
125
124
126
248
48
125
125
126
248
48
125
125
126
248
49
125
125
127
248
50
126
125
127
248
50
126
125
127
248
50
126
125
127
248
50
126
125
127
248
50
126
125
127
248
50
126
125
127
248
50
126
125
127
248
50
126
125
127
248
50
126
125
127
248
50
126
125
127
248
51
126
126
127
248
51
126
126
127
248
51
126
126
127
248
51
126
126
127
248
51
126
126
127
248
53
127
127
127
248
57
128
129
128
248
59
129
130
128
248
60
130
130
128
248
59
129
130
128
248
57
128
129
128
248
53
127
127
127
248
51
126
32383
248
51
126
126
127
248
51
126
126
127
248
51
126
126
127
248
51
126
126
127
248
51
126
126
127
248
51
126
126
127
248
51
126
126
127
248
51
126
126
127
248
49
125
125
127
248
55
127
128
128
248
63
134
35973
248
51
141
150
136
249
72
79
248
52
137
142
133
248
55
128
128
127
248
62
125
123
126
248
63
125
124
126
248
49
126
125
126
248
49
126
125
126
248
49
126
125
126
248
49
126
125
126
248
49
126
125
126
248
50
126
125
127
248
50
126
125
127
248
50
126
125
127
248
50
126
125
127
248
50
126
125
127
248
12926
125
127
248
51
126
126
127
248
52
127
126
127
248
54
128
127
127
248
58
129
129
128
248
61
130
131
128
248
48
131
132
129
248
50
132
133
129
248
51
132
134
129
248
52
133
134
129
248
52
133
134
129
248
50
132
133
129
248
49
131
133
129
248
61
130
131
128
248
57
128
129
128
248
53
127
127
127
248
49
125
125
127
248
63
125
124
126
248
63
125
124
126
248
63
125
124
126
248
63
125
124
126
248
63
125
124
126
248
63
125
124
126
248
48
125
125
126
252
115
31
7
33
48
255
30
31
0
248
48
125
125
126
248
50
126
125
127
248
50
126
125
127
16415232
248
50
126
125
127
248
50
126
125
127
248
50
126
125
127
248
50
126
125
127
248
50
126
125
127
248
50
126
125
127
248
50
126
125
127
248
50
126
125
127
248
50
126
125
127
248
51
126
126
127
248
51
126
126
127
248
51
126
126
127
248
51
126
126
127
248
51
126
126
127
248
53
127
127
127
248
56
128
128
128
248
59
129
130
128
248
60
130
130
128
248
59
129
130
128
248
57
128
129
128
248
53
127
127
127
248
51
126
126
127
248
51
126
126
127
248
51
126
126
127
248
51
126
126
127
248
51
126
126
127
248
51
126
126
127
248
51
126
126
127
248
51
126
126
127
248
51
126
126
127
248
49
125
125
127
248
53
126
127
128
248
61
133
139
133
248
51
141
150
136
249
72
79
248
53
137
143
133
248
57
129
129
127
248
62
125
123
126
248
63
125
124
126
248
49
126
125
126
248
49
126
125
126
248
49
126
125
126
248
49
126
125
126
248
49
126
125
126
248
49
126
125
126
248
49
126
125
126
248
50
126
125
127
248
50
126
125
127
248
50
126
32127
248
50
126
125
127
248
50
126
125
127
248
52
127
126
127
248
54
128
127
127
248
58
129
129
128
248
61
130
131
128
248
48
131
132
129
248
50
132
133
129
248
51
132
134
129
248
52
133
134
129
248
52
133
134
129
248
51
132
134
129
248
49
131
133
129
248
61
130
131
128
248
57
128
129
128
248
53
127
127
127
248
50
126
32127
248
63
125
124
126
248
63
125
124
126
248
63
125
124
126
248
63
125
124
126
248
63
125
124
126
248
63
125
124
126
248
63
125
124
126
248
48
125
125
126
248
49
126
125
126
248
50
126
125
127
248
50
126
125
127
248
50
126
125
127
248
50
126
125
127
248
50
126
125
127
248
50
126
125
127
248
50
126
125
127
248
50
126
125
127
252
115
31
7
33
48
248
50
126
125
127
255
7711
0
248
50
126
125
127
248
51
126
126
127
250
122
0
248
51
126
126
127
248
51
126
126
127
248
51
126
126
127
248
51
126
126
127
248
53
127
127
127
248
56
128
128
128
248
59
129
130
128
248
61
130
131
128
248
59
129
130
128
248
57
128
129
128
248
53
127
127
127
248
51
126
126
127
248
51
126
126
127
248
51
126
126
127
248
51
126
126
127
248
51
126
126
127
248
51
126
126
127
248
51
126
126
127
248
51
126
126
127
248
51
126
126
127
248
49
125
125
127
248
53
126
127
128
248
59
133
138
132
248
49
140
149
136
249
72
79
248
56
138
144
134
248
59
129
130
128
248
62
125
123
126
248
63
125
124
126
248
49
126
125
126
248
49
126
125
126
248
49
126
125
126
248
49
126
125
126
248
49
126
125
126
248
49
126
125
126
248
50
126
125
127
248
50
126
125
127
248
50
126
125
127
248
50
126
125
127
248
50
126
125
127
248
50
126
125
127
248
52
127
126
127
248
53
127
127
127
248
58
129
129
128
248
61
130
131
128
248
48
131
132
129
248
50
132
133
129
248
51
132
134
129
248
52
133
134
129
248
52
133
134
129
248
51
132
134
129
248
49
131
133
129
248
61
130
131
128
248
57
128
129
128
248
53
127
127
127
248
50
126
125
127
248
63
125
124
126
248
63
125
124
126
248
63
125
124
126
248
63
125
124
126
248
63
125
124
126
248
63
125
124
126
248
63
125
124
126
248
48
125
125
126
248
50
126
125
127
248
50
126
125
127
248
50
126
125
127
248
50
126
125
127
248
50
126
125
127
248
50
126
125
127
248
50
126
125
127
248
50
126
125
127
248
50
126
125
127
248
50
126
125
127
248
51
126
126
127
248
51
126
126
127
248
51
126
126
127
248
51
126
126
127
248
51
126
126
127
248
51
126
126
127
248
52
127
126
127
248
56
128
128
128
248
59
129
33408
252
29471
7
33
48
248
60
130
130
128
255
30
31
0
248
59
129
130
128
248
57
128
129
128
250
122
0
248
53
127
127
127
248
51
126
126
127
248
51
126
126
127
248
51
126
126
127
248
51
126
126
127
248
51
126
126
127
248
51
126
126
127
248
51
126
126
127
248
51
126
126
127
248
51
126
126
127
248
50
126
125
127
248
52
126
126
128
248
56
132
136
132
248
49
140
149
136
249
72
79
248
57
138
145
134
248
60
130
130
128
248
62
125
123
126
248
63
125
124
126
248
49
126
125
126
248
49
126
125
126
248
49
126
125
126
248
49
126
125
126
248
49
126
125
126
248
49
126
125
126
248
49
126
125
126
248
50
126
125
127
248
50
126
125
127
248
50
126
125
127
248
50
126
125
127
248
50
126
125
127
248
51
126
126
127
248
53
127
127
127
248
58
129
129
128
248
60
130
130
128
248
48
131
132
129
248
50
132
133
129
248
51
132
134
129
248
52
133
134
129
248
52
133
134
129
248
51
132
134
129
248
49
131
133
129
248
62
130
131
129
248
58
129
129
128
248
53
127
127
127
248
50
126
125
127
248
63
125
124
126
248
63
125
124
126
248
63
125
124
126
248
63
125
124
126
248
63
125
124
126
248
63
125
124
126
248
63
125
124
126
248
48
125
125
126
248
49
125
125
127
248
50
126
125
127
248
50
126
125
127
248
50
126
125
127
248
50
126
125
127
248
50
126
125
127
248
50
126
125
127
248
50
126
125
127
248
50
126
125
127
248
50
126
125
127
248
50
126
125
127
248
51
126
126
127
248
51
126
126
127
248
51
126
126
127
248
51
126
126
127
248
51
126
126
127
248
52
127
126
127
248
56
128
128
128
248
59
129
130
128
248
61
130
131
128
248
60
130
130
128
248
58
129
129
128
248
53
127
127
127
248
51
126
126
127
248
50
126
125
127
248
51
126
126
127
248
51
126
126
127
248
51
126
126
127
248
51
126
126
127
248
51
126
126
127
252
29471
1825
48
255
30
7936
248
51
126
126
127
248
51
126
126
127
248
50
126
125
127
250
31232
248
52
126
126
128
248
53
131
135
131
248
48
140
148
136
249
72
79
248
60
139
146
135
248
61
130
131
128
248
63
125
124
126
248
63
125
124
126
248
49
126
125
126
248
49
126
125
126
248
49
126
32126
248
49
126
125
126
248
49
126
125
126
248
49
126
125
126
248
49
126
125
126
248
50
126
125
127
248
50
126
125
127
248
50
126
125
127
248
50
126
125
127
248
50
126
125
127
248
51
32382
127
248
53
127
127
127
248
56
128
129
127
248
60
130
130
128
248
63
131
132
128
248
50
132
133
129
248
51
132
134
129
248
52
133
134
129
248
52
133
134
129
248
51
132
134
129
248
50
132
133
129
248
62
130
131
129
248
58
129
129
128
248
53
127
127
127
248
50
126
125
127
248
63
125
124
126
248
63
125
124
126
248
63
125
124
126
248
63
125
124
126
248
63
125
124
126
248
63
125
124
126
248
63
125
124
126
248
48
125
125
126
248
48
125
125
126
248
50
126
125
127
248
50
126
125
127
248
50
126
125
127
248
50
126
125
127
248
50
126
125
127
248
12926
125
127
248
50
126
125
127
248
50
126
125
127
248
50
126
125
127
248
50
126
125
127
248
863927935
248
51
126
126
127
248
51
126
126
127
248
51
126
126
127
248
51
126
126
127
248
52
127
126
127
248
56
128
128
128
248
59
129
130
128
248
60
130
130
128
248
60
130
130
128
248
58
129
129
128
248
53
127
127
127
248
51
126
126
127
248
51
126
126
127
248
51
126
126
127
248
51
126
126
127
248
51
126
126
127
248
51
126
126
127
248
51
126
126
127
248
51
126
126
127
248
51
126
126
127
248
50
126
125
127
248
51
125
126
128
248
13443
134
131
248
63
139
148
136
249
72
79
248
61
35731
135
248
48
131
132
129
248
63
125
124
126
248
16253
124
126
252
115
31
7
33
48
248
49
126
125
126
255
30
31
0
248
49
126
125
126
248
49
126
125
126
250
122
0
248
49
126
125
126
248
49
126
125
126
248
49
126
125
126
248
50
126
125
127
248
50
126
125
127
248
50
126
125
127
248
50
126
125
127
248
50
126
125
127
248
50
126
125
127
248
51
126
126
127
248
53
127
127
127
248
56
128
129
127
248
60
130
130
128
248
63
131
132
128
248
50
132
133
129
248
51
132
134
129
248
52
133
134
129
248
52
133
134
129
248
51
33926
129
248
50
132
133
129
248
63
130
132
129
248
59
129
130
128
248
53
127
127
127
248
50
126
125
127
248
63
125
124
126
248
63
125
124
126
248
63
125
124
126
248
63
125
124
126
248
63
125
124
126
248
63
125
124
126
248
63
125
124
126
248
48
125
125
126
248
49
125
125
127
248
50
126
125
127
248
50
126
125
127
248
50
126
125
127
248
50
126
125
127
248
50
126
125
127
248
50
126
125
127
248
50
126
125
127
248
50
126
125
127
248
50
126
125
127
248
50
126
125
127
248
50
126
125
127
248
51
126
126
127
248
51
126
126
127
248
51
126
126
127
248
51
126
126
127
248
52
127
126
127
248
55
128
128
127
248
59
129
130
128
248
60
130
130
128
248
60
130
130
128
248
58
129
129
128
248
54
127
128
127
248
51
126
126
127
248
50
126
125
127
248
51
126
126
127
248
51
126
126
127
248
51
126
126
127
248
51
126
126
127
248
51
126
32383
248
51
126
126
127
248
51
126
32383
248
50
126
125
127
248
49
125
125
127
248
12930
133
131
248
62
139
147
136
249
72
79
248
63
140
148
135
248
49
131
133
129
248
48
126
124
126
248
63
125
124
126
248
49
126
125
126
248
49
126
125
126
248
49
126
125
126
248
49
126
125
126
248
49
126
125
126
248
49
126
125
126
248
50
126
125
127
248
12926
125
127
248
50
126
125
127
248
50
126
125
127
252
115
31
467248
248
50
126
125
127
255
30
31
0
248
50
126
125
127
248
51
126
126
127
250
122
0
248
53
127
127
127
248
55
128
128
127
248
60
130
130
128
248
63
131
132
128
248
50
132
133
129
248
51
132
134
129
248
52
133
134
129
248
52
133
134
129
248
51
132
134
129
248
50
132
133
129
248
63
130
132
129
248
59
129
130
128
248
54
127
128
127
248
51
126
126
127
248
63
125
124
126
248
63
125
124
126
248
63
32124
126
248
63
125
124
126
248
16253
124
126
248
63
125
31870
248
48
125
125
126
248
12669
125
127
248
50
126
125
127
248
50
126
125
127
248
50
126
125
127
248
50
126
125
127
248
50
32381
127
248
50
126
125
127
248
50
126
125
127
248
50
126
125
127
248
50
126
125
127
248
50
126
125
127
248
50
126
125
127
248
51
126
32383
248
51
126
126
127
248
51
126
126
127
248
13182
126
127
248
13182
126
127
248
13182
126
127
248
54
127
128
127
248
58
129
129
128
248
60
130
130
128
248
60
130
130
128
248
59
8487552
248
56
128
128
128
248
51
126
126
127
248
51
126
32383
248
51
126
126
127
248
13182
126
127
248
51
126
126
127
248
51
32382
127
248
51
126
126
127
248
51
32382
127
248
51
126
126
127
248
50
126
125
127
248
49
125
125
127
248
63
33156
130
248
60
138
147
135
249
72
79
248
63
140
148
135
248
51
132
134
129
248
48
126
124
126
248
16253
124
126
248
48
126
124
126
248
49
126
125
126
248
49
126
125
126
248
12670
125
126
248
49
126
125
126
248
12670
125
126
248
49
126
125
126
248
50
126
125
127
248
12926
125
127
248
50
126
125
127
248
12926
125
127
248
50
126
125
127
248
51
126
126
127
248
53
127
127
127
248
55
32896
127
248
59
129
130
128
248
63
131
132
128
248
49
131
133
129
248
13188
134
129
248
51
33926
129
248
52
133
134
129
64627
31
7
33
48
255
30
31
0
248
51
132
134
129
248
50
132
133
129
248
48
131
132
33274
122
0
248
59
129
130
128
248
55
127
128
128
248
51
126
126
127
248
16253
124
126
248
63
125
31870
248
16253
124
126
248
63
125
124
126
248
63
125
124
126
248
63
32124
126
248
63
125
124
126
248
48
32125
126
248
49
126
125
126
248
12926
125
127
248
12926
125
127
248
12926
125
127
248
50
126
125
127
248
50
126
125
127
248
50
126
32127
248
12926
125
127
248
50
126
125
127
248
50
126
125
127
63538
126
125
127
248
12926
125
127
248
51
126
126
127
248
51
126
126
127
248
13182
126
127
248
51
126
126
127
248
51
126
126
127
248
13695
127
127
248
58
129
129
128
248
60
130
130
128
248
60
130
130
128
248
59
129
130
128
248
56
128
128
128
248
13439
126
127
248
51
126
126
127
248
13182
126
127
248
13182
32383
248
51
126
126
127
248
13182
126
127
248
51
126
126
127
248
51
126
126
127
248
51
126
126
127
248
51
126
126
127
248
49
125
125
127
248
62
129
131
130
248
59
138
146
135
248
12684
149
136
249
72
79
248
54
133
135
130
248
12670
125
126
248
62
125
123
126
248
12414
124
126
248
12670
125
126
248
12670
125
126
248
12670
125
126
248
49
126
125
126
248
49
126
125
126
248
50
126
125
127
248
50
126
125
127
248
50
126
125
127
248
50
126
125
127
248
50
126
125
127
248
50
126
125
127
248
13182
126
127
248
13695
127
127
248
55
128
128
127
248
59
129
130
128
248
62
131
131
128
248
12675
133
129
248
51
132
134
129
248
13188
134
129
248
52
133
134
129
248
51
132
134
129
248
12932
133
129
248
12419
132
129
248
59
129
33408
248
56
128
128
128
248
51
126
126
127
248
63
125
124
126
248
63
32124
126
248
63
125
124
126
248
63
125
124
126
252
115
31
7
33
48
248
16253
124
126
65310
31
0
248
16253
124
126
248
63
125
124
126
250
122
0
248
12413
125
126
248
48
125
125
126
248
50
32381
127
248
12926
125
127
248
50
126
125
127
248
50
126
125
127
248
50
126
125
127
248
12926
125
127
248
50
126
125
127
248
50
126
125
127
248
50
126
125
127
248
12926
125
127
248
13182
126
127
248
51
126
126
127
248
13182
126
127
248
51
126
126
127
248
51
126
126
127
248
51
126
126
127
248
53
127
32639
248
58
33153
128
248
15490
33408
248
60
130
130
128
248
59
129
130
128
248
56
128
128
128
248
13439
32383
248
51
126
126
127
248
51
126
126
127
248
51
126
126
127
248
51
126
126
127
248
13182
126
127
248
13182
126
127
248
51
126
126
127
248
51
126
126
127
248
51
32382
127
248
49
125
125
127
248
61
128
131
130
248
57
137
145
135
248
49
35989
136
249
72
79
248
57
134
137
130
248
49
126
125
126
248
62
125
123
126
248
48
126
124
126
248
49
32381
126
248
49
126
125
126
248
49
126
125
126
248
49
126
125
126
248
12670
125
126
248
50
126
125
127
248
50
32381
127
248
50
126
125
127
248
50
126
125
127
248
50
126
125
127
248
50
126
32127
248
13182
32383
248
52
127
126
127
248
55
128
128
127
248
59
129
130
128
248
61
130
131
128
248
49
33669
129
248
51
132
134
129
248
51
132
134
129
248
52
133
134
129
248
13188
134
129
248
50
132
133
129
248
48
131
132
129
248
59
129
130
128
248
56
128
128
128
248
51
126
32383
248
63
125
124
126
248
63
125
124
126
248
63
125
124
126
248
63
125
124
126
248
63
32124
126
248
63
125
124
126
248
63
125
124
126
248
48
8224126
248
49
125
125
127
248
50
126
125
127
248
50
8289663
248
50
126
125
127
248
50
126
125
127
248
50
32381
127
252
115
31
7
33
48
248
50
8289663
255
30
31
0
248
50
126
125
127
248
50
126
125
127
250
122
0
248
50
32381
127
248
50
126
125
127
248
51
126
126
127
248
51
126
32383
248
51
126
126
127
248
51
32382
127
248
51
32382
127
248
51
32382
127
248
53
127
127
127
248
58
129
129
128
248
59
129
130
128
248
60
33410
128
248
59
129
130
128
248
