254
82
126
125
125
126
126
248
112
126
126
127
129
127
126
127
254
83
126
125
126
126
126
248
112
126
126
127
129
127
126
127
254
84
126
126
126
126
126
248
112
126
126
127
129
127
126
127
254
85
127
126
126
126
126
248
112
126
126
127
129
127
126
127
254
85
127
126
126
126
126
248
112
126
126
127
129
127
126
127
254
82
126
125
125
126
126
248
127
125
125
127
130
126
126
128
254
82
127
126
125
125
125
248
122
127
129
129
126
127
129
131
254
82
132
136
133
130
129
248
117
136
143
134
115
128
138
131
254
84
137
151
152
145
141
248
124
141
150
136
109
130
143
123
254
94
125
142
153
152
148
249
72
79
248
122
135
139
131
118
129
135
111
254
80
103
114
132
138
139
248
116
127
126
127
128
128
126
114
254
84
103
108
119
125
127
248
122
125
123
126
131
127
125
125
254
95
120
121
121
123
124
248
125
125
124
126
130
127
125
128
254
80
128
125
124
124
125
248
127
126
125
126
130
127
125
128
254
82
128
126
124
125
125
248
127
126
125
126
129
127
126
128
254
83
128
126
125
125
125
248
127
126
125
126
129
127
126
128
254
83
128
126
125
125
125
248
127
126
125
126
129
127
126
128
254
83
128
126
125
125
125
248
127
126
125
126
129
127
126
128
254
83
128
126
125
125
125
248
127
126
125
126
129
127
126
128
254
83
128
126
125
125
125
248
127
126
125
126
129
127
126
128
254
84
128
126
125
125
126
248
112
126
125
127
129
127
126
128
254
84
128
126
125
125
126
248
112
126
125
127
129
127
126
128
254
84
128
126
125
125
126
248
112
126
125
127
129
127
126
128
254
84
128
126
125
125
126
248
112
126
125
127
129
127
126
128
254
84
128
126
125
125
126
248
113
126
126
127
129
127
126
128
254
85
128
126
125
126
126
248
114
127
126
127
128
127
127
128
254
88
128
128
126
126
126
248
118
128
128
127
127
128
128
128
254
95
129
130
128
127
127
248
121
129
129
128
125
128
129
129
254
88
130
133
131
128
128
248
124
130
131
128
124
128
130
129
254
82
132
136
133
130
129
248
114
131
133
129
123
129
131
130
254
89
133
138
135
131
130
248
115
132
134
129
122
129
131
130
254
95
134
139
137
132
131
248
115
132
134
129
121
129
132
130
254
82
135
140
137
133
131
248
116
133
134
129
121
129
132
130
254
85
135
141
138
133
132
248
114
132
134
129
121
129
131
130
254
82
135
140
137
133
131
248
114
132
133
129
122
129
131
130
254
94
134
138
136
133
131
248
127
131
132
129
123
128
131
129
254
87
133
136
134
132
130
248
124
130
131
128
125
128
129
129
254
94
132
133
131
131
129
248
118
128
128
128
127
127
128
128
254
84
130
130
129
129
128
248
112
126
126
127
128
127
127
127
254
88
128
126
126
127
127
248
127
125
125
127
130
127
126
127
254
94
126
124
124
125
125
248
124
125
124
126
130
127
125
127
254
91
126
123
123
124
125
248
124
125
124
126
130
127
125
127
254
91
126
123
123
124
125
248
124
125
124
126
130
127
125
127
254
91
126
123
123
124
125
248
124
125
124
126
130
127
125
127
254
92
126
123
123
125
125
248
124
125
124
126
130
127
125
127
254
93
126
123
124
125
125
248
124
125
124
126
130
127
125
127
254
93
126
123
124
125
125
248
125
125
125
126
130
127
125
127
254
94
126
124
124
125
125
248
127
125
125
127
130
127
126
127
254
94
126
124
124
125
125
248
127
125
125
127
130
127
126
127
254
95
126
124
124
125
126
248
127
126
125
127
129
127
126
127
254
95
126
124
124
125
126
248
127
126
125
127
129
127
126
127
254
95
126
124
124
125
126
248
127
126
125
127
129
127
126
127
254
95
126
124
124
125
126
248
127
126
125
127
129
127
126
127
254
95
126
124
124
125
126
248
127
126
125
127
129
127
126
127
254
80
126
124
125
125
126
248
127
126
125
127
129
127
126
127
254
81
126
125
125
125
126
248
127
126
125
127
129
127
126
127
254
82
126
125
125
126
126
252
107
31
127
33
48
248
127
126
125
127
129
127
126
127
254
82
126
125
125
126
126
255
61
31
31
248
127
126
125
127
129
127
126
127
254
82
126
125
125
126
126
248
127
126
125
127
129
127
126
127
254
82
126
125
125
126
126
250
122
0
248
112
126
126
127
129
127
126
127
254
82
126
125
125
126
126
248
112
126
126
127
129
127
126
127
254
82
126
125
125
126
126
248
112
126
126
127
129
127
126
127
254
82
126
125
125
126
126
248
112
126
126
127
129
127
126
127
254
83
127
125
125
126
126
248
112
126
126
127
129
127
126
127
254
84
127
125
126
126
126
248
114
127
127
127
128
127
127
127
254
88
127
126
127
127
127
248
119
128
129
128
126
128
128
128
254
95
128
128
128
129
128
248
121
129
130
128
125
128
129
128
254
84
129
129
129
130
129
248
122
130
130
128
125
128
129
128
254
84
129
129
129
130
129
248
121
129
130
128
125
128
129
128
254
83
129
129
129
129
129
248
117
128
128
128
126
127
128
128
254
95
128
128
128
129
128
248
114
127
127
127
128
127
127
127
254
89
127
127
127
127
127
248
112
126
126
127
129
127
126
127
254
82
126
125
125
126
126
248
112
126
126
127
129
127
126
127
254
82
126
125
125
126
126
248
112
126
126
127
129
127
126
127
254
82
126
125
125
126
126
248
112
126
126
127
129
127
126
127
254
82
126
125
125
126
126
248
112
126
126
127
129
127
126
127
254
83
126
125
126
126
126
248
112
126
126
127
129
127
126
127
254
84
126
126
126
126
126
248
112
126
126
127
129
127
126
127
254
85
127
126
126
126
126
248
112
126
126
127
129
127
126
127
254
85
127
126
126
126
126
248
112
126
126
127
129
127
126
127
254
83
126
125
126
126
126
248
127
125
125
127
130
126
126
128
254
82
127
126
125
125
125
248
122
127
128
129
127
127
129
131
254
93
131
135
132
129
128
248
116
135
141
134
116
128
138
132
254
80
137
150
151
144
140
248
124
141
150
136
109
130
143
123
254
81
127
143
153
152
148
249
72
79
248
125
136
140
132
117
129
136
111
254
85
104
115
133
139
140
248
117
128
127
127
127
128
127
113
254
84
102
108
119
125
128
248
120
125
123
126
131
127
124
124
254
92
119
120
120
123
124
248
125
125
124
126
130
127
125
128
254
80
128
125
124
124
125
248
127
126
125
126
130
127
125
128
254
82
128
126
124
125
125
248
127
126
125
126
129
127
126
128
254
83
128
126
125
125
125
248
127
126
125
126
129
127
126
128
254
83
128
126
125
125
125
248
127
126
125
126
129
127
126
128
254
83
128
126
125
125
125
248
127
126
125
126
129
127
126
128
254
83
128
126
125
125
125
248
127
126
125
126
129
127
126
128
254
83
128
126
125
125
125
248
112
126
125
127
129
127
126
128
254
84
128
126
125
125
126
248
112
126
125
127
129
127
126
128
254
84
128
126
125
125
126
248
112
126
125
127
129
127
126
128
254
84
128
126
125
125
126
248
112
126
125
127
129
127
126
128
254
84
128
126
125
125
126
248
112
126
125
127
129
127
126
128
254
84
128
126
125
125
126
248
113
126
126
127
129
127
126
128
254
85
128
126
125
126
126
248
114
127
126
127
128
127
127
128
254
88
128
128
126
126
126
248
117
128
128
127
127
128
127
128
254
95
129
130
128
127
127
248
121
129
129
128
125
128
129
129
254
88
130
133
131
128
128
248
124
130
131
128
124
128
130
129
254
81
132
135
133
130
129
248
112
131
132
129
123
129
130
130
254
89
133
138
135
131
130
248
115
132
134
129
122
129
131
130
254
95
134
139
137
132
131
248
115
132
134
129
121
129
132
130
254
82
135
140
137
133
131
248
116
133
134
129
121
129
132
130
254
85
135
141
138
133
132
248
116
133
134
129
121
129
132
130
254
82
135
140
137
133
131
248
114
132
133
129
122
129
131
130
254
95
134
139
136
133
131
248
112
131
132
129
123
129
131
129
254
88
134
136
134
132
130
248
124
130
131
128
125
128
129
129
254
95
132
133
132
131
129
248
118
128
128
128
126
128
128
128
254
84
130
130
129
129
128
248
114
127
126
127
128
127
127
128
254
89
128
127
126
127
127
248
127
125
125
127
130
127
126
127
254
95
126
124
124
125
126
248
124
125
124
126
130
127
125
127
254
91
126
123
123
124
125
248
124
125
124
126
130
127
125
127
254
91
126
123
123
124
125
248
124
125
124
126
130
127
125
127
254
91
126
123
123
124
125
248
124
125
124
126
130
127
125
127
254
92
126
123
123
125
125
248
124
125
124
126
130
127
125
127
254
93
126
123
124
125
125
248
124
125
124
126
130
127
125
127
254
93
126
123
124
125
125
248
124
125
124
126
130
127
125
127
254
94
126
124
124
125
125
248
126
125
125
126
130
127
126
127
254
94
126
124
124
125
125
248
112
126
125
127
130
127
126
127
254
95
126
124
124
125
126
248
127
126
125
127
129
127
126
127
254
95
126
124
124
125
126
248
127
126
125
127
129
127
126
127
254
95
126
124
124
125
126
248
127
126
125
127
129
127
126
127
254
95
126
124
124
125
126
248
127
126
125
127
129
127
126
127
254
95
126
124
124
125
126
248
127
126
125
127
129
127
126
127
254
80
126
124
125
125
126
248
127
126
125
127
129
127
126
127
254
80
126
124
125
125
126
248
127
126
125
127
129
127
126
127
254
81
126
125
125
125
126
248
127
126
125
127
129
127
126
127
254
82
126
125
125
126
126
248
127
126
125
127
129
127
126
127
254
82
126
125
125
126
126
248
112
126
126
127
129
127
126
127
254
82
126
125
125
126
126
248
112
126
126
127
129
127
126
127
254
82
126
125
125
126
126
248
112
126
126
127
129
127
126
127
254
82
126
125
125
126
126
248
112
126
126
127
129
127
126
127
254
82
126
125
125
126
126
248
112
126
126
127
129
127
126
127
254
83
127
125
125
126
126
248
112
126
126
127
129
127
126
127
254
84
127
125
126
126
126
248
114
127
127
127
128
127
127
127
254
88
127
126
127
127
127
248
119
128
129
128
126
128
128
128
254
95
128
128
128
129
128
248
121
129
130
128
125
128
129
128
254
83
129
129
129
129
129
252
107
31
127
33
48
255
61
31
31
248
123
130
131
128
125
128
129
128
254
84
129
129
129
130
129
248
121
129
130
128
125
128
129
128
254
83
129
129
129
129
129
248
118
128
129
128
126
127
128
128
254
95
128
128
128
129
128
250
122
0
248
114
127
127
127
128
127
127
127
254
89
127
127
127
127
127
248
112
126
126
127
129
127
126
127
254
83
126
125
126
126
126
248
112
126
126
127
129
127
126
127
254
82
126
125
125
126
126
248
112
126
126
127
129
127
126
127
254
82
126
125
125
126
126
248
112
126
126
127
129
127
126
127
254
82
126
125
125
126
126
248
112
126
126
127
129
127
126
127
254
83
126
125
126
126
126
248
112
126
126
127
129
127
126
127
254
84
126
126
126
126
126
248
112
126
126
127
129
127
126
127
254
84
126
126
126
126
126
248
112
126
126
127
129
127
126
127
254
85
127
126
126
126
126
248
112
126
126
127
129
127
126
127
254
83
126
125
126
126
126
248
112
125
125
127
130
127
126
128
254
81
127
125
125
125
125
248
118
127
128
128
127
126
128
130
254
89
131
134
131
128
127
248
113
134
140
133
117
128
137
132
254
91
137
149
149
143
139
248
125
141
150
136
109
130
143
124
254
85
128
145
154
152
148
249
72
79
248
127
136
141
132
116
129
137
112
254
94
106
117
135
141
141
248
117
128
128
127
127
128
127
112
254
84
101
108
119
126
128
248
119
125
123
126
131
127
124
123
254
90
118
119
120
123
124
248
125
125
124
126
130
127
125
128
254
95
127
125
124
124
125
248
127
126
125
126
130
127
125
128
254
82
128
126
124
125
125
248
126
126
125
126
129
127
125
128
254
83
128
126
125
125
125
248
127
126
125
126
129
127
126
128
254
83
128
126
125
125
125
248
127
126
125
126
129
127
126
128
254
83
128
126
125
125
125
248
127
126
125
126
129
127
126
128
254
83
128
126
125
125
125
248
127
126
125
126
129
127
126
128
254
83
128
126
125
125
125
248
112
126
125
127
129
127
126
128
254
84
128
126
125
125
126
248
112
126
125
127
129
127
126
128
254
84
128
126
125
125
126
248
112
126
125
127
129
127
126
128
254
84
128
126
125
125
126
248
112
126
125
127
129
127
126
128
254
84
128
126
125
125
126
248
112
126
125
127
129
127
126
128
254
84
128
126
125
125
126
248
113
126
126
127
129
127
126
128
254
85
128
126
125
126
126
248
113
127
126
127
128
127
126
128
254
87
128
127
126
126
126
248
117
128
128
127
127
128
127
128
254
95
129
130
128
127
127
248
121
129
129
128
126
128
128
129
254
87
130
133
130
128
128
248
124
130
131
128
124
128
130
129
254
95
131
135
133
129
129
248
112
131
132
129
123
129
130
130
254
89
133
138
135
131
130
248
114
132
133
129
122
129
131
130
254
94
134
139
136
132
131
248
115
132
134
129
121
129
132
130
254
82
135
140
137
133
131
248
116
133
134
129
121
129
132
130
254
85
135
141
138
133
132
248
116
133
134
129
121
129
132
130
254
82
135
140
137
133
131
248
114
132
133
129
122
129
131
130
254
95
134
139
136
133
131
248
112
131
132
129
123
129
131
129
254
89
134
136
135
132
130
248
124
130
131
128
124
128
130
129
254
80
132
134
132
131
129
248
119
128
129
128
126
128
128
128
254
85
131
130
129
129
128
248
115
127
127
127
128
127
127
128
254
89
128
127
126
127
127
248
127
125
125
127
130
127
126
127
254
80
127
124
124
125
126
248
124
125
124
126
130
127
125
127
254
91
126
123
123
124
125
248
124
125
124
126
130
127
125
127
254
91
126
123
123
124
125
248
124
125
124
126
130
127
125
127
254
91
126
123
123
124
125
248
124
125
124
126
130
127
125
127
254
92
126
123
123
125
125
248
124
125
124
126
130
127
125
127
254
92
126
123
123
125
125
248
124
125
124
126
130
127
125
127
254
93
126
123
124
125
125
248
124
125
124
126
130
127
125
127
254
94
126
124
124
125
125
248
127
125
125
127
130
127
126
127
254
94
126
124
124
125
125
248
112
126
125
127
130
127
126
127
254
94
126
124
124
125
125
248
127
126
125
127
129
127
126
127
254
95
126
124
124
125
126
248
127
126
125
127
129
127
126
127
254
95
126
124
124
125
126
248
127
126
125
127
129
127
126
127
254
95
126
124
124
125
126
248
127
126
125
127
129
127
126
127
254
95
126
124
124
125
126
248
127
126
125
127
129
127
126
127
254
80
126
124
125
125
126
248
127
126
125
127
129
127
126
127
254
81
126
125
125
125
126
248
127
126
125
127
129
127
126
127
254
82
126
125
125
126
126
248
127
126
125
127
129
127
126
127
254
82
126
125
125
126
126
248
127
126
125
127
129
127
126
127
254
82
126
125
125
126
126
248
127
126
125
127
129
127
126
127
254
82
126
125
125
126
126
248
112
126
126
127
129
127
126
127
254
82
126
125
125
126
126
248
112
126
126
127
129
127
126
127
254
82
126
125
125
126
126
248
112
126
126
127
129
127
126
127
254
82
126
125
125
126
126
248
112
126
126
127
129
127
126
127
254
83
127
125
125
126
126
248
112
126
126
127
129
127
126
127
254
83
127
125
125
126
126
248
114
127
127
127
128
127
127
127
254
87
127
126
126
127
127
248
119
128
129
128
126
128
128
128
254
95
128
128
128
129
128
248
121
129
130
128
125
128
129
128
254
83
129
129
129
129
129
248
123
130
131
128
125
128
129
128
254
84
129
129
129
130
129
248
121
129
130
128
125
128
129
128
254
83
129
129
129
129
129
248
119
128
129
128
126
128
128
128
254
95
128
128
128
129
128
248
114
127
127
127
128
127
127
127
254
89
127
127
127
127
127
248
112
126
126
127
129
127
126
127
254
84
126
126
126
126
126
248
112
126
126
127
129
127
126
127
254
82
126
125
125
126
126
248
112
126
126
127
129
127
126
127
254
82
126
125
125
126
126
248
112
126
126
127
129
127
126
127
254
82
126
125
125
126
126
248
112
126
126
127
129
127
126
127
254
83
126
125
126
126
126
248
112
126
126
127
129
127
126
127
254
83
126
125
126
126
126
252
107
31
127
33
48
248
112
126
126
127
129
127
126
127
254
84
126
126
126
126
126
255
61
31
31
248
112
126
126
127
129
127
126
127
254
85
127
126
126
126
126
248
112
126
126
127
129
127
126
127
254
84
127
125
126
126
126
250
122
0
248
127
125
125
127
129
127
126
128
254
81
127
125
125
125
125
248
117
126
127
128
128
126
128
130
254
86
130
133
130
128
127
248
112
134
139
133
118
128
136
132
254
88
137
149
148
142
138
248
126
141
150
136
110
129
143
125
254
89
130
146
155
152
148
249
72
79
248
115
137
143
133
115
129
138
112
254
85
107
119
137
142
142
248
117
128
128
127
126
128
128
112
254
86
101
107
120
127
129
248
119
125
123
126
131
127
124
123
254
88
117
118
120
123
124
248
125
125
124
126
130
127
125
128
254
95
127
125
124
124
125
248
127
126
125
126
130
127
125
128
254
82
128
126
124
125
125
248
126
126
125
126
129
127
125
128
254
83
128
126
125
125
125
248
127
126
125
126
129
127
126
128
254
83
128
126
125
125
125
248
127
126
125
126
129
127
126
128
254
83
128
126
125
125
125
248
127
126
125
126
129
127
126
128
254
83
128
126
125
125
125
248
127
126
125
126
129
127
126
128
254
83
128
126
125
125
125
248
112
126
125
127
129
127
126
128
254
84
128
126
125
125
126
248
112
126
125
127
129
127
126
128
254
84
128
126
125
125
126
248
112
126
125
127
129
127
126
128
254
84
128
126
125
125
126
248
112
126
125
127
129
127
126
128
254
84
128
126
125
125
126
248
112
126
125
127
129
127
126
128
254
84
128
126
125
125
126
248
112
126
125
127
129
127
126
128
254
85
128
126
125
126
126
248
113
127
126
127
128
127
126
128
254
87
128
127
126
126
126
248
116
128
127
127
127
128
127
128
254
95
129
130
128
127
127
248
121
129
129
128
126
128
128
129
254
86
130
132
130
128
128
248
123
130
131
128
124
128
129
129
254
95
131
135
133
129
129
248
112
131
132
129
123
129
130
130
254
88
133
137
135
131
130
248
114
132
133
129
122
129
131
130
254
94
134
139
136
132
131
248
115
132
134
129
121
129
132
130
254
82
135
140
137
133
131
248
116
133
134
129
121
129
132
130
254
85
135
141
138
133
132
248
115
132
134
129
121
129
132
130
254
83
135
140
138
133
131
248
114
132
133
129
122
129
131
130
254
80
134
139
137
133
131
248
113
131
133
129
123
129
131
129
254
90
134
136
135
132
131
248
124
130
131
128
124
128
130
129
254
81
132
134
132
131
130
248
119
128
129
128
126
128
128
128
254
86
131
131
129
129
128
248
115
127
127
127
128
127
127
128
254
90
129
127
126
127
127
248
126
125
125
127
129
127
126
127
254
80
127
124
124
125
126
248
124
125
124
126
130
127
125
127
254
91
126
123
123
124
125
248
124
125
124
126
130
127
125
127
254
91
126
123
123
124
125
248
124
125
124
126
130
127
125
127
254
91
126
123
123
124
125
248
124
125
124
126
130
127
125
127
254
92
126
123
123
125
125
248
124
125
124
126
130
127
125
127
254
92
126
123
123
125
125
248
124
125
124
126
130
127
125
127
254
93
126
123
124
125
125
248
124
125
124
126
130
127
125
127
254
94
126
124
124
125
125
248
126
125
125
126
130
127
126
127
254
94
126
124
124
125
125
248
112
126
125
127
130
127
126
127
254
94
126
124
124
125
125
248
127
126
125
127
129
127
126
127
254
95
126
124
124
125
126
248
127
126
125
127
129
127
126
127
254
95
126
124
124
125
126
248
127
126
125
127
129
127
126
127
254
95
126
124
124
125
126
248
127
126
125
127
129
127
126
127
254
95
126
124
124
125
126
248
127
126
125
127
129
127
126
127
254
80
126
124
125
125
126
248
127
126
125
127
129
127
126
127
254
80
126
124
125
125
126
248
127
126
125
127
129
127
126
127
254
81
126
125
125
125
126
248
127
126
125
127
129
127
126
127
254
82
126
125
125
126
126
248
127
126
125
127
129
127
126
127
254
82
126
125
125
126
126
248
127
126
125
127
129
127
126
127
254
82
126
125
125
126
126
248
112
126
126
127
129
127
126
127
254
82
126
125
125
126
126
248
112
126
126
127
129
127
126
127
254
82
126
125
125
126
126
248
112
126
126
127
129
127
126
127
254
82
126
125
125
126
126
248
112
126
126
127
129
127
126
127
254
82
126
125
125
126
126
248
112
126
126
127
129
127
126
127
254
83
127
125
125
126
126
248
114
127
127
127
128
127
127
127
254
87
127
126
126
127
127
248
117
128
128
128
126
127
128
128
254
94
128
128
128
128
128
248
121
129
130
128
125
128
129
128
254
83
129
129
129
129
129
248
122
130
130
128
125
128
129
128
254
84
129
129
129
130
129
248
121
129
130
128
125
128
129
128
254
84
129
129
129
130
129
248
119
128
129
128
126
128
128
128
254
80
129
128
128
129
128
248
114
127
127
127
128
127
127
127
254
89
127
127
127
127
127
248
112
126
126
127
129
127
126
127
254
84
126
126
126
126
126
248
112
126
126
127
129
127
126
127
254
82
126
125
125
126
126
248
112
126
126
127
129
127
126
127
254
82
126
125
125
126
126
248
112
126
126
127
129
127
126
127
254
82
126
125
125
126
126
248
112
126
126
127
129
127
126
127
254
83
126
125
126
126
126
248
112
126
126
127
129
127
126
127
254
84
126
126
126
126
126
248
112
126
126
127
129
127
126
127
254
85
127
126
126
126
126
248
112
126
126
127
129
127
126
127
254
85
127
126
126
126
126
248
112
126
126
127
129
127
126
127
254
85
127
126
126
126
126
248
127
125
125
127
129
127
126
128
254
80
126
125
125
125
125
248
116
126
127
128
128
126
127
130
254
83
130
132
130
127
126
248
125
133
138
132
119
128
135
132
254
82
136
148
147
140
137
248
125
140
149
136
110
129
143
126
254
91
131
147
155
152
148
249
72
79
248
118
138
144
133
114
129
139
113
254
92
108
121
139
143
143
248
119
129
129
128
126
128
128
111
254
87
100
107
120
128
130
248
118
125
123
126
131
127
124
122
254
85
116
117
119
123
124
252
107
31
127
33
48
248
125
125
124
126
130
127
125
128
254
95
127
125
124
124
125
255
61
31
31
248
127
126
125
126
130
127
125
128
254
82
128
126
124
125
125
248
126
126
125
126
129
127
125
128
254
83
128
126
125
125
125
250
122
0
248
127
126
125
126
129
127
126
128
254
83
128
126
125
125
125
248
127
126
125
126
129
127
126
128
254
83
128
126
125
125
125
248
127
126
125
126
129
127
126
128
254
83
128
126
125
125
125
248
127
126
125
126
129
127
126
128
254
83
128
126
125
125
125
248
112
126
125
127
129
127
126
128
254
83
128
126
125
125
125
248
112
126
125
127
129
127
126
128
254
84
128
126
125
125
126
248
112
126
125
127
129
127
126
128
254
84
128
126
125
125
126
248
112
126
125
127
129
127
126
128
254
84
128
126
125
125
126
248
112
126
125
127
129
127
126
128
254
84
128
126
125
125
126
248
112
126
125
127
129
127
126
128
254
85
128
126
125
126
126
248
112
126
126
127
128
127
126
128
254
87
128
127
126
126
126
248
115
127
127
127
127
128
127
128
254
93
129
129
128
126
127
248
121
129
129
128
126
128
128
129
254
86
130
132
130
128
128
248
123
130
131
128
124
128
129
129
254
95
131
135
133
129
129
248
112
131
132
129
123
129
130
130
254
88
133
137
135
131
130
248
114
132
133
129
122
129
131
130
254
94
134
139
136
132
131
248
115
132
134
129
121
129
132
130
254
82
135
140
137
133
131
248
116
133
134
129
121
129
132
130
254
84
135
140
138
133
132
248
116
133
134
129
121
129
132
130
254
83
135
140
138
133
131
248
115
132
134
129
122
129
131
130
254
80
134
139
137
133
131
248
113
131
133
129
123
129
131
129
254
91
134
137
135
132
131
248
124
130
131
128
124
128
130
129
254
82
133
134
132
131
130
248
119
128
129
128
126
128
128
128
254
87
131
131
130
129
128
248
115
127
127
127
128
127
127
128
254
91
129
127
127
127
127
248
127
126
125
127
129
127
126
127
254
81
127
124
124
126
126
248
124
125
124
126
130
127
125
127
254
91
126
123
123
124
125
248
124
125
124
126
130
127
125
127
254
91
126
123
123
124
125
248
124
125
124
126
130
127
125
127
254
91
126
123
123
124
125
248
124
125
124
126
130
127
125
127
254
92
126
123
123
125
125
248
124
125
124
126
130
127
125
127
254
92
126
123
123
125
125
248
124
125
124
126
130
127
125
127
254
93
126
123
124
125
125
248
124
125
124
126
130
127
125
127
254
94
126
124
124
125
125
248
127
125
125
127
130
127
126
127
254
94
126
124
124
125
125
248
127
126
125
126
130
127
126
127
254
94
126
124
124
125
125
248
127
126
125
127
129
127
126
127
254
95
126
124
124
125
126
248
127
126
125
127
129
127
126
127
254
95
126
124
124
125
126
248
127
126
125
127
129
127
126
127
254
95
126
124
124
125
126
248
127
126
125
127
129
127
126
127
254
95
126
124
124
125
126
248
127
126
125
127
129
127
126
127
254
80
126
124
125
125
126
248
127
126
125
127
129
127
126
127
254
80
126
124
125
125
126
248
127
126
125
127
129
127
126
127
254
82
126
125
125
126
126
248
127
126
125
127
129
127
126
127
254
82
126
125
125
126
126
248
127
126
125
127
129
127
126
127
254
82
126
125
125
126
126
248
127
126
125
127
129
127
126
127
254
82
126
125
125
126
126
248
112
126
126
127
129
127
126
127
254
82
126
125
125
126
126
248
112
126
126
127
129
127
126
127
254
82
126
125
125
126
126
248
112
126
126
127
129
127
126
127
254
82
126
125
125
126
126
248
112
126
126
127
129
127
126
127
254
83
127
125
125
126
126
248
112
126
126
127
129
127
126
127
254
83
127
125
125
126
126
248
113
127
126
127
128
127
127
127
254
87
127
126
126
127
127
248
119
128
128
128
127
128
128
128
254
94
128
128
128
128
128
248
121
129
130
128
125
128
129
128
254
83
129
129
129
129
129
248
122
130
130
128
125
128
129
128
254
84
129
129
129
130
129
248
121
129
130
128
125
128
129
128
254
84
129
129
129
130
129
248
119
128
129
128
126
128
128
128
254
80
129
128
128
129
128
248
114
127
127
127
128
127
127
127
254
90
127
127
127
128
127
248
112
126
126
127
129
127
126
127
254
84
126
126
126
126
126
248
112
126
126
127
129
127
126
127
254
82
126
125
125
126
126
248
112
126
126
127
129
127
126
127
254
82
126
125
125
126
126
248
112
126
126
127
129
127
126
127
254
82
126
125
125
126
126
248
112
126
126
127
129
127
126
127
254
83
126
125
126
126
126
248
112
126
126
127
129
127
126
127
254
83
126
125
126
126
126
248
112
126
126
127
129
127
126
127
254
84
126
126
126
126
126
248
112
126
126
127
129
127
126
127
254
85
127
126
126
126
126
248
112
126
126
127
129
127
126
127
254
85
127
126
126
126
126
248
127
125
125
127
129
127
126
128
254
80
126
125
125
125
125
248
116
126
126
128
129
126
127
130
254
95
129
131
129
126
126
248
122
132
137
132
120
127
134
132
254
93
136
147
145
139
136
248
126
140
149
136
110
129
143
127
254
91
132
148
155
151
147
249
72
79
248
121
138
145
134
113
130
139
114
254
85
110
123
141
145
144
248
120
129
130
128
125
128
129
111
254
89
100
107
121
128
131
248
116
125
123
126
130
127
124
121
254
83
115
116
119
123
124
248
125
125
124
126
130
127
125
128
254
93
126
125
123
124
125
248
127
126
125
126
130
127
125
128
254
82
128
126
124
125
125
248
126
126
125
126
129
127
125
128
254
83
128
126
125
125
125
248
127
126
125
126
129
127
126
128
254
83
128
126
125
125
125
248
127
126
125
126
129
127
126
128
254
83
128
126
125
125
125
248
127
126
125
126
129
127
126
128
254
83
128
126
125
125
125
248
127
126
125
126
129
127
126
128
254
83
128
126
125
125
125
248
112
126
125
127
129
127
126
128
254
84
128
126
125
125
126
248
112
126
125
127
129
127
126
128
254
84
128
126
125
125
126
248
112
126
125
127
129
127
126
128
254
84
128
126
125
125
126
248
112
126
125
127
129
127
126
128
254
84
128
126
125
125
126
252
107
31
127
33
48
255
61
31
31
248
112
126
125
127
129
127
126
128
254
84
128
126
125
125
126
248
113
126
126
127
129
127
126
128
254
84
128
126
125
125
126
248
112
126
126
127
128
127
126
128
254
87
128
127
126
126
126
250
122
0
248
114
127
127
127
127
127
127
128
254
93
129
129
128
126
127
248
121
129
129
128
126
128
128
129
254
86
130
132
130
128
128
248
123
130
131
128
124
128
129
129
254
94
131
135
132
129
129
248
127
131
132
129
123
129
130
129
254
88
133
137
135
131
130
248
114
132
133
129
122
129
131
130
254
94
134
139
136
132
131
248
116
132
134
129
122
129
132
130
254
82
135
140
137
133
131
248
116
133
134
129
121
129
132
130
254
84
135
140
138
133
132
248
116
133
134
129
121
129
132
130
254
83
135
140
138
133
131
248
115
132
134
129
122
129
131
130
254
80
134
139
137
133
131
248
113
131
133
129
123
129
131
129
254
91
134
137
135
132
131
248
124
130
131
128
124
128
130
129
254
82
133
134
132
131
130
248
121
129
129
128
126
128
129
128
254
88
131
131
130
130
128
248
115
127
127
127
128
127
127
128
254
93
129
128
127
128
127
248
127
126
125
127
129
127
126
127
254
81
127
124
124
126
126
248
124
125
124
126
130
127
125
127
254
91
126
123
123
124
125
248
124
125
124
126
130
127
125
127
254
91
126
123
123
124
125
248
124
125
124
126
130
127
125
127
254
91
126
123
123
124
125
248
124
125
124
126
130
127
125
127
254
91
126
123
123
124
125
248
124
125
124
126
130
127
125
127
254
92
126
123
123
125
125
248
124
125
124
126
130
127
125
127
254
93
126
123
124
125
125
248
125
125
125
126
130
127
125
127
254
94
126
124
124
125
125
248
126
125
125
126
130
127
126
127
254
94
126
124
124
125
125
248
112
126
125
127
130
127
126
127
254
94
126
124
124
125
125
248
127
126
125
127
129
127
126
127
254
95
126
124
124
125
126
248
127
126
125
127
129
127
126
127
254
95
126
124
124
125
126
248
127
126
125
127
129
127
126
127
254
95
126
124
124
125
126
248
127
126
125
127
129
127
126
127
254
95
126
124
124
125
126
248
127
126
125
127
129
127
126
127
254
80
126
124
125
125
126
248
127
126
125
127
129
127
126
127
254
80
126
124
125
125
126
248
127
126
125
127
129
127
126
127
254
81
126
125
125
125
126
248
127
126
125
127
129
127
126
127
254
82
126
125
125
126
126
248
127
126
125
127
129
127
126
127
254
82
126
125
125
126
126
248
127
126
125
127
129
127
126
127
254
82
126
125
125
126
126
248
127
126
125
127
129
127
126
127
254
82
126
125
125
126
126
248
112
126
126
127
129
127
126
127
254
82
126
125
125
126
126
248
112
126
126
127
129
127
126
127
254
83
127
125
125
126
126
248
112
126
126
127
129
127
126
127
254
83
127
125
125
126
126
248
112
126
126
127
129
127
126
127
254
83
127
125
125
126
126
248
113
127
126
127
128
127
127
127
254
87
127
126
126
127
127
248
118
128
128
128
127
127
128
128
254
94
128
128
128
128
128
248
121
129
130
128
125
128
129
128
254
83
129
129
129
129
129
248
123
130
131
128
125
128
129
128
254
84
129
129
129
130
129
248
121
129
130
128
125
128
129
128
254
84
129
129
129
130
129
248
120
128
129
128
126
128
129
128
254
82
129
128
129
129
129
248
113
127
127
127
127
127
127
127
254
90
127
127
127
128
127
248
112
126
126
127
129
127
126
127
254
85
127
126
126
126
126
248
112
126
126
127
129
127
126
127
254
82
126
125
125
126
126
248
112
126
126
127
129
127
126
127
254
82
126
125
125
126
126
248
112
126
126
127
129
127
126
127
254
82
126
125
125
126
126
248
112
126
126
127
129
127
126
127
254
83
126
125
126
126
126
248
112
126
126
127
129
127
126
127
254
83
126
125
126
126
126
248
112
126
126
127
129
127
126
127
254
84
126
126
126
126
126
248
112
126
126
127
129
127
126
127
254
85
127
126
126
126
126
248
112
126
126
127
129
127
126
127
254
85
127
126
126
126
126
248
127
126
125
127
129
127
126
127
254
80
126
125
125
125
125
248
116
126
126
128
129
126
127
130
254
93
129
130
128
126
126
248
122
132
136
132
121
127
134
132
254
88
136
145
144
138
135
248
125
140
149
136
110
129
142
127
254
93
133
149
155
151
147
249
72
79
248
124
139
146
134
112
130
140
115
254
91
112
125
142
146
144
248
122
130
131
128
124
128
130
111
254
91
100
107
122
129
131
248
116
125
123
126
130
127
125
120
254
81
113
115
119
123
125
248
124
125
124
126
130
127
125
127
254
92
126
124
123
124
125
248
127
126
125
126
130
127
125
128
254
82
128
126
124
125
125
248
112
126
125
126
130
127
126
128
254
83
128
126
125
125
125
248
127
126
125
126
129
127
126
128
254
83
128
126
125
125
125
248
127
126
125
126
129
127
126
128
254
83
128
126
125
125
125
248
127
126
125
126
129
127
126
128
254
83
128
126
125
125
125
248
127
126
125
126
129
127
126
128
254
83
128
126
125
125
125
248
112
126
125
127
129
127
126
128
254
83
128
126
125
125
125
248
112
126
125
127
129
127
126
128
254
84
128
126
125
125
126
248
112
126
125
127
129
127
126
128
254
84
128
126
125
125
126
248
112
126
125
127
129
127
126
128
254
84
128
126
125
125
126
248
112
126
125
127
129
127
126
128
254
84
128
126
125
125
126
248
112
126
125
127
129
127
126
128
254
84
128
126
125
125
126
248
113
126
126
127
129
127
126
128
254
87
128
127
126
126
126
248
115
127
127
127
128
127
127
128
254
92
129
129
127
126
127
248
121
129
129
128
126
128
128
129
254
85
130
132
130
127
128
248
123
130
130
128
125
128
129
129
254
93
131
134
132
129
129
248
126
131
132
128
123
129
130
129
254
87
133
137
134
131
130
248
114
132
133
129
122
129
131
130
254
94
134
139
136
132
131
248
116
132
134
129
122
129
132
130
254
82
135
140
137
133
131
248
116
133
134
129
121
129
132
130
254
84
135
140
138
133
132
252
107
31
127
33
48
248
116
133
134
129
121
129
132
130
254
83
135
140
138
133
131
255
61
31
31
248
115
132
134
129
122
129
131
130
254
81
135
139
137
133
131
248
113
131
133
129
122
129
131
130
254
91
134
137
135
132
131
250
122
0
248
125
130
131
129
124
128
130
129
254
83
133
134
133
131
130
248
121
129
129
128
126
128
129
128
254
89
131
131
130
130
129
248
115
127
127
127
128
127
127
128
254
93
129
128
127
128
127
248
127
126
125
127
129
127
126
127
254
82
127
125
124
126
126
248
124
125
124
126
130
127
125
127
254
92
126
123
123
125
125
248
124
125
124
126
130
127
125
127
254
91
126
123
123
124
125
248
124
125
124
126
130
127
125
127
254
91
126
123
123
124
125
248
124
125
124
126
130
127
125
127
254
91
126
123
123
124
125
248
124
125
124
126
130
127
125
127
254
92
126
123
123
125
125
248
124
125
124
126
130
127
125
127
254
93
126
123
124
125
125
248
124
125
124
126
130
127
125
127
254
94
126
124
124
125
125
248
126
125
125
126
130
127
126
127
254
94
126
124
124
125
125
248
127
125
125
127
130
127
126
127
254
95
126
124
124
125
126
248
112
126
125
127
130
127
126
127
254
95
126
124
124
125
126
248
127
126
125
127
129
127
126
127
254
95
126
124
124
125
126
248
127
126
125
127
129
127
126
127
254
95
126
124
124
125
126
248
127
126
125
127
129
127
126
127
254
95
126
124
124
125
126
248
127
126
125
127
129
127
126
127
254
95
126
124
124
125
126
248
127
126
125
127
129
127
126
127
254
80
126
124
125
125
126
248
127
126
125
127
129
127
126
127
254
81
126
125
125
125
126
248
127
126
125
127
129
127
126
127
254
82
126
125
125
126
126
248
127
126
125
127
129
127
126
127
254
82
126
125
125
126
126
248
127
126
125
127
129
127
126
127
254
82
126
125
125
126
126
248
112
126
126
127
129
127
126
127
254
82
126
125
125
126
126
248
112
126
126
127
129
127
126
127
254
82
126
125
125
126
126
248
112
126
126
127
129
127
126
127
254
82
126
125
125
126
126
248
112
126
126
127
129
127
126
127
254
83
127
125
125
126
126
248
112
126
126
127
129
127
126
127
254
83
127
125
125
126
126
248
113
127
126
127
128
127
127
127
254
87
127
126
126
127
127
248
118
128
128
128
127
127
128
128
254
93
128
127
128
128
128
248
121
129
130
128
125
128
129
128
254
83
129
129
129
129
129
248
122
130
130
128
125
128
129
128
254
84
129
129
129
130
129
248
122
130
130
128
125
128
129
128
254
84
129
129
129
130
129
248
121
129
129
128
126
128
129
128
254
83
129
129
129
129
129
248
113
127
127
127
127
127
127
127
254
91
128
127
127
128
127
248
112
126
126
127
129
127
126
127
254
85
127
126
126
126
126
248
112
126
126
127
129
127
126
127
254
82
126
125
125
126
126
248
112
126
126
127
129
127
126
127
254
82
126
125
125
126
126
248
112
126
126
127
129
127
126
127
254
82
126
125
125
126
126
248
112
126
126
127
129
127
126
127
254
83
126
125
126
126
126
248
112
126
126
127
129
127
126
127
254
85
127
126
126
126
126
248
112
126
126
127
129
127
126
127
254
85
127
126
126
126
126
248
112
126
126
127
129
127
126
127
254
85
127
126
126
126
126
248
112
126
126
127
129
127
126
127
254
85
127
126
126
126
126
248
127
126
125
127
129
127
126
127
254
80
126
125
125
125
125
248
115
126
126
128
129
126
127
129
254
90
129
129
128
125
125
248
119
131
135
131
122
127
133
132
254
81
135
144
142
136
134
248
126
140
148
136
111
129
142
128
254
94
134
150
155
151
146
249
72
79
248
112
139
147
135
112
130
141
116
254
83
113
128
144
147
145
248
123
131
132
129
123
128
130
110
254
95
100
108
123
130
132
248
116
125
124
126
130
127
125
119
254
94
112
114
118
123
125
248
124
125
124
126
130
127
125
127
254
92
126
124
123
124
125
248
127
126
125
126
130
127
125
128
254
82
128
126
124
125
125
248
126
126
125
126
129
127
125
128
254
83
128
126
125
125
125
248
127
126
125
126
129
127
126
128
254
83
128
126
125
125
125
248
127
126
125
126
129
127
126
128
254
83
128
126
125
125
125
248
127
126
125
126
129
127
126
128
254
83
128
126
125
125
125
248
127
126
125
126
129
127
126
128
254
83
128
126
125
125
125
248
127
126
125
126
129
127
126
128
254
83
128
126
125
125
125
248
112
126
125
127
129
127
126
128
254
84
128
126
125
125
126
248
112
126
125
127
129
127
126
128
254
84
128
126
125
125
126
248
112
126
125
127
129
127
126
128
254
84
128
126
125
125
126
248
112
126
125
127
129
127
126
128
254
84
128
126
125
125
126
248
112
126
125
127
129
127
126
128
254
84
128
126
125
125
126
248
113
126
126
127
129
127
126
128
254
87
128
127
126
126
126
248
115
127
127
127
128
127
127
128
254
91
128
129
127
126
127
248
119
128
129
127
126
128
128
129
254
83
130
131
129
127
128
248
123
130
130
128
125
128
129
129
254
93
131
134
132
129
129
248
126
131
132
128
123
129
130
129
254
86
133
137
134
130
130
248
114
132
133
129
122
129
131
130
254
94
134
139
136
132
131
248
116
132
134
129
122
129
132
130
254
82
135
140
137
133
131
248
116
133
134
129
121
129
132
130
254
85
135
141
138
133
132
248
116
133
134
129
121
129
132
130
254
83
135
140
138
133
131
248
115
132
134
129
122
129
131
130
254
81
135
139
137
133
131
248
114
132
133
129
122
129
131
130
254
91
134
137
135
132
131
248
125
130
131
129
124
128
130
129
254
84
133
135
133
131
130
248
121
129
129
128
126
128
129
128
254
90
131
132
130
130
129
248
114
127
127
127
127
127
127
128
254
93
129
128
127
128
127
248
127
126
125
127
129
127
126
127
254
82
127
125
124
126
126
248
124
125
124
126
130
127
125
127
254
92
126
123
123
125
125
248
124
125
124
126
130
127
125
127
254
91
126
123
123
124
125
248
124
125
124
126
130
127
125
127
254
91
126
123
123
124
125
252
107
31
127
33
48
248
124
125
124
126
130
127
125
127
254
91
126
123
123
124
125
255
61
31
31
248
124
125
124
126
130
127
125
127
254
92
126
123
123
125
125
248
124
125
124
126
130
127
125
127
254
93
126
123
124
125
125
250
122
0
248
124
125
124
126
130
127
125
127
254
94
126
124
124
125
125
248
126
125
125
126
130
127
126
127
254
94
126
124
124
125
125
248
112
126
125
127
130
127
126
127
254
94
126
124
124
125
125
248
112
126
125
127
130
127
126
127
254
95
126
124
124
125
126
248
127
126
125
127
129
127
126
127
254
95
126
124
124
125
126
248
127
126
125
127
129
127
126
127
254
95
126
124
124
125
126
248
127
126
125
127
129
127
126
127
254
95
126
124
124
125
126
248
127
126
125
127
129
127
126
127
254
95
126
124
124
125
126
248
127
126
125
127
129
127
126
127
254
80
126
124
125
125
126
248
127
126
125
127
129
127
126
127
254
81
126
125
125
125
126
248
127
126
125
127
129
127
126
127
254
82
126
125
125
126
126
248
127
126
125
127
129
127
126
127
254
82
126
125
125
126
126
248
127
126
125
127
129
127
126
127
254
82
126
125
125
126
126
248
112
126
126
127
129
127
126
127
254
82
126
125
125
126
126
248
112
126
126
127
129
127
126
127
254
82
126
125
125
126
126
248
112
126
126
127
129
127
126
127
254
82
126
125
125
126
126
248
112
126
126
127
129
127
126
127
254
83
127
125
125
126
126
248
112
126
126
127
129
127
126
127
254
83
127
125
125
126
126
248
112
126
126
127
128
127
127
127
254
87
127
126
126
127
127
248
117
128
128
127
127
127
128
128
254
91
128
127
127
128
127
248
121
129
130
128
125
128
129
128
254
83
129
129
129
129
129
248
122
130
130
128
125
128
129
128
254
84
129
129
129
130
129
248
122
130
130
128
125
128
129
128
254
84
129
129
129
130
129
248
121
129
129
128
126
128
129
128
254
83
129
129
129
129
129
248
114
127
128
127
127
127
127
127
254
92
128
128
127
128
127
248
112
126
126
127
129
127
126
127
254
85
127
126
126
126
126
248
127
126
125
127
129
127
126
127
254
82
126
125
125
126
126
248
112
126
126
127
129
127
126
127
254
82
126
125
125
126
126
248
112
126
126
127
129
127
126
127
254
82
126
125
125
126
126
248
112
126
126
127
129
127
126
127
254
83
126
125
126
126
126
248
112
126
126
127
129
127
126
127
254
85
127
126
126
126
126
248
112
126
126
127
129
127
126
127
254
85
127
126
126
126
126
248
112
126
126
127
129
127
126
127
254
85
127
126
126
126
126
248
112
126
126
127
129
127
126
127
254
85
127
126
126
126
126
248
127
126
125
127
129
127
126
127
254
81
126
125
125
125
126
248
112
125
126
127
129
126
126
129
254
88
128
129
127
125
125
248
117
130
134
131
123
127
132
132
254
93
135
143
141
135
133
248
126
139
148
136
111
129
142
129
254
93
134
150
155
150
146
249
72
79
248
113
140
147
135
111
130
141
117
254
91
115
130
146
148
146
248
125
131
133
129
123
128
131
110
254
82
100
108
124
131
133
248
115
125
124
126
130
127
125
118
254
91
110
113
118
123
125
248
124
125
124
126
130
127
125
127
254
91
125
124
123
124
125
248
126
126
124
126
130
127
125
128
254
82
128
126
124
125
125
248
127
126
125
126
130
127
125
128
254
83
128
126
125
125
125
248
112
126
125
126
130
127
126
128
254
83
128
126
125
125
125
248
127
126
125
126
129
127
126
128
254
83
128
126
125
125
125
248
127
126
125
126
129
127
126
128
254
83
128
126
125
125
125
248
127
126
125
126
129
127
126
128
254
83
128
126
125
125
125
248
127
126
125
126
129
127
126
128
254
83
128
126
125
125
125
248
127
126
125
126
129
127
126
128
254
84
128
126
125
125
126
248
112
126
125
127
129
127
126
128
254
84
128
126
125
125
126
248
112
126
125
127
129
127
126
128
254
84
128
126
125
125
126
248
112
126
125
127
129
127
126
128
254
84
128
126
125
125
126
248
112
126
125
127
129
127
126
128
254
84
128
126
125
125
126
248
113
126
126
127
129
127
126
128
254
87
128
127
126
126
126
248
115
127
127
127
128
127
127
128
254
91
128
129
127
126
127
248
118
128
128
127
126
128
128
129
254
82
129
131
129
127
128
248
123
130
130
128
125
128
129
129
254
93
131
134
132
129
129
248
125
131
132
128
123
128
130
129
254
85
132
137
134
130
130
248
114
132
133
129
122
129
131
130
254
94
134
139
136
132
131
248
115
132
134
129
122
129
131
130
254
82
135
140
137
133
131
248
115
132
134
129
121
129
132
130
254
84
135
140
138
133
132
248
116
133
134
129
121
129
132
130
254
85
135
141
138
133
132
248
115
132
134
129
122
129
131
130
254
81
135
139
137
133
131
248
114
132
133
129
122
129
131
130
254
91
134
137
135
132
131
248
126
130
132
129
124
128
130
129
254
84
133
135
133
131
130
248
121
129
130
128
125
128
129
128
254
90
131
132
130
130
129
248
114
127
127
127
127
127
127
128
254
94
129
128
128
128
127
248
127
126
125
127
129
127
126
127
254
83
127
125
125
126
126
248
124
125
124
126
130
127
125
127
254
92
126
123
123
125
125
248
124
125
124
126
130
127
125
127
254
91
126
123
123
124
125
248
124
125
124
126
130
127
125
127
254
91
126
123
123
124
125
248
124
125
124
126
130
127
125
127
254
91
126
123
123
124
125
248
124
125
124
126
130
127
125
127
254
92
126
123
123
125
125
248
124
125
124
126
130
127
125
127
254
93
126
123
124
125
125
248
124
125
124
126
130
127
125
127
254
93
126
123
124
125
125
248
126
125
125
126
130
127
126
127
254
94
126
124
124
125
125
248
112
126
125
127
130
127
126
127
254
94
126
124
124
125
125
248
127
126
125
127
129
127
126
127
254
95
126
124
124
125
126
248
127
126
125
127
129
127
126
127
254
95
126
124
124
125
126
248
127
126
125
127
129
127
126
127
254
95
126
124
124
125
126
248
127
126
125
127
129
127
126
127
254
95
126
124
124
125
126
248
127
126
125
127
129
127
126
127
254
95
126
124
124
125
126
252
107
31
127
33
48
255
61
31
31
248
127
126
125
127
129
127
126
127
254
80
126
124
125
125
126
248
127
126
125
127
129
127
126
127
254
81
126
125
125
125
126
248
127
126
125
127
129
127
126
127
254
81
126
125
125
125
126
250
122
0
248
127
126
125
127
129
127
126
127
254
82
126
125
125
126
126
248
127
126
125
127
129
127
126
127
254
82
126
125
125
126
126
248
112
126
126
127
129
127
126
127
254
82
126
125
125
126
126
248
112
126
126
127
129
127
126
127
254
82
126
125
125
126
126
248
112
126
126
127
129
127
126
127
254
82
126
125
125
126
126
248
112
126
126
127
129
127
126
127
254
82
126
125
125
126
126
248
112
126
126
127
129
127
126
127
254
83
127
125
125
126
126
248
113
127
126
127
128
127
127
127
254
85
127
126
126
126
126
248
117
128
128
127
127
127
128
128
254
91
128
127
127
128
127
248
121
129
130
128
125
128
129
128
254
83
129
129
129
129
129
248
122
130
130
128
125
128
129
128
254
84
129
129
129
130
129
248
122
130
130
128
125
128
129
128
254
84
129
129
129
130
129
248
121
129
129
128
126
128
129
128
254
83
129
129
129
129
129
248
116
127
128
128
127
127
128
127
254
94
128
128
128
128
128
248
127
126
126
127
128
127
126
127
254
86
127
126
126
127
126
248
112
126
126
127
129
127
126
127
254
82
126
125
125
126
126
248
112
126
126
127
129
127
126
127
254
82
126
125
125
126
126
248
112
126
126
127
129
127
126
127
254
82
126
125
125
126
126
248
112
126
126
127
129
127
126
127
254
82
126
125
125
126
126
248
112
126
126
127
129
127
126
127
254
83
126
125
126
126
126
248
112
126
126
127
129
127
126
127
254
83
126
125
126
126
126
248
112
126
126
127
129
127
126
127
254
85
127
126
126
126
126
248
112
126
126
127
129
127
126
127
254
85
127
126
126
126
126
248
127
126
125
127
129
127
126
127
254
81
126
125
125
125
126
248
127
125
125
127
129
126
126
129
254
86
128
128
126
125
125
248
116
130
133
131
123
127
132
132
254
87
134
142
139
134
132
248
125
139
147
136
112
129
141
129
254
94
135
151
155
150
145
249
72
79
248
116
140
148
135
111
130
142
118
254
82
117
132
147
149
147
248
112
132
134
129
122
129
132
110
254
86
100
109
125
132
134
248
116
126
124
126
130
127
125
118
254
89
109
112
118
123
125
248
124
125
124
126
130
127
125
127
254
88
124
123
122
124
125
248
126
126
124
126
130
127
125
128
254
81
128
125
124
125
125
248
127
126
125
126
130
127
125
128
254
82
128
126
124
125
125
248
127
126
125
126
129
127
126
128
254
83
128
126
125
125
125
248
127
126
125
126
129
127
126
128
254
83
128
126
125
125
125
248
127
126
125
126
129
127
126
128
254
83
128
126
125
125
125
248
127
126
125
126
129
127
126
128
254
83
128
126
125
125
125
248
127
126
125
126
129
127
126
128
254
83
128
126
125
125
125
248
112
126
125
127
129
127
126
128
254
84
128
126
125
125
126
248
112
126
125
127
129
127
126
128
254
84
128
126
125
125
126
248
112
126
125
127
129
127
126
128
254
84
128
126
125
125
126
248
112
126
125
127
129
127
126
128
254
84
128
126
125
125
126
248
112
126
125
127
129
127
126
128
254
84
128
126
125
125
126
248
113
126
126
127
129
127
126
128
254
87
128
127
126
126
126
248
115
127
127
127
128
127
127
128
254
89
128
128
127
126
126
248
118
128
128
127
126
128
128
129
254
82
129
131
129
127
128
248
123
130
130
128
125
128
129
129
254
92
131
134
131
129
129
248
126
131
132
128
124
128
130
129
254
84
132
136
134
130
130
248
113
131
133
129
122
129
131
130
254
93
134
138
136
132
131
248
116
132
134
129
122
129
132
130
254
82
135
140
137
133
131
248
116
133
134
129
121
129
132
130
254
84
135
140
138
133
132
248
116
133
134
129
121
129
132
130
254
85
135
141
138
133
132
248
115
132
134
129
122
129
131
130
254
82
135
140
137
133
131
248
114
132
133
129
122
129
131
130
254
93
134
137
136
133
131
248
126
130
132
129
124
128
130
129
254
85
133
135
133
132
130
248
121
129
130
128
125
128
129
128
254
92
132
132
131
130
129
248
116
127
128
127
127
127
128
128
254
80
130
129
128
128
127
248
112
126
126
127
129
127
126
127
254
83
127
125
125
126
126
248
124
125
124
126
130
127
125
127
254
92
126
123
123
125
125
248
124
125
124
126
130
127
125
127
254
91
126
123
123
124
125
248
124
125
124
126
130
127
125
127
254
91
126
123
123
124
125
248
124
125
124
126
130
127
125
127
254
91
126
123
123
124
125
248
124
125
124
126
130
127
125
127
254
92
126
123
123
125
125
248
124
125
124
126
130
127
125
127
254
93
126
123
124
125
125
248
124
125
124
126
130
127
125
127
254
94
126
124
124
125
125
248
126
125
125
126
130
127
126
127
254
94
126
124
124
125
125
248
127
126
125
126
130
127
126
127
254
94
126
124
124
125
125
248
127
126
125
126
130
127
126
127
254
94
126
124
124
125
125
248
127
126
125
127
129
127
126
127
254
95
126
124
124
125
126
248
127
126
125
127
129
127
126
127
254
95
126
124
124
125
126
248
127
126
125
127
129
127
126
127
254
95
126
124
124
125
126
248
127
126
125
127
129
127
126
127
254
95
126
124
124
125
126
248
127
126
125
127
129
127
126
127
254
80
126
124
125
125
126
248
127
126
125
127
129
127
126
127
254
81
126
125
125
125
126
248
127
126
125
127
129
127
126
127
254
82
126
125
125
126
126
248
127
126
125
127
129
127
126
127
254
82
126
125
125
126
126
248
127
126
125
127
129
127
126
127
254
82
126
125
125
126
126
248
112
126
126
127
129
127
126
127
254
82
126
125
125
126
126
248
112
126
126
127
129
127
126
127
254
82
126
125
125
126
126
248
112
126
126
127
129
127
126
127
254
82
126
125
125
126
126
248
112
126
126
127
129
127
126
127
254
82
126
125
125
126
126
248
112
126
126
127
129
127
126
127
254
83
127
125
125
126
126
252
107
31
127
33
48
248
112
126
126
127
128
127
127
127
254
85
127
126
126
126
126
255
61
31
31
248
114
127
127
127
127
127
127
128
254
91
128
127
127
128
127
248
121
129
129
128
126
128
129
128
254
83
129
129
129
129
129
250
122
0
248
122
130
130
128
125
128
129
128
254
84
129
129
129
130
129
248
122
130
130
128
125
128
129
128
254
84
129
129
129
130
129
248
121
129
130
128
125
128
129
128
254
83
129
129
129
129
129
248
118
128
128
128
127
127
128
128
254
94
128
128
128
128
128
248
112
126
126
127
128
127
127
127
254
87
127
126
126
127
127
248
112
126
126
127
129
127
126
127
254
82
126
125
125
126
126
248
112
126
126
127
129
127
126
127
254
82
126
125
125
126
126
248
112
126
126
127
129
127
126
127
254
82
126
125
125
126
126
248
112
126
126
127
129
127
126
127
254
82
126
125
125
126
126
248
112
126
126
127
129
127
126
127
254
83
126
125
126
126
126
248
112
126
126
127
129
127
126
127
254
84
126
126
126
126
126
248
112
126
126
127
129
127
126
127
254
84
126
126
126
126
126
248
112
126
126
127
129
127
126
127
254
85
127
126
126
126
126
248
127
126
125
127
129
127
126
127
254
82
126
125
125
126
126
248
127
125
125
127
129
126
126
129
254
85
128
127
126
125
125
248
113
129
132
130
124
127
131
132
254
82
134
140
138
133
131
248
124
138
146
135
113
129
141
130
254
93
136
151
155
149
144
248
117
140
148
136
110
130
142
119
254
90
119
135
149
150
147
249
72
79
248
114
133
135
130
121
129
132
110
254
89
100
109
126
133
135
248
115
126
125
126
129
127
125
117
254
88
108
111
118
123
126
248
123
125
124
126
130
127
125
126
254
87
124
123
122
124
124
248
126
126
124
126
130
127
125
128
254
81
128
125
124
125
125
248
127
126
125
126
130
127
125
128
254
83
128
126
125
125
125
248
127
126
125
126
129
127
126
128
254
83
128
126
125
125
125
248
127
126
125
126
129
127
126
128
254
83
128
126
125
125
125
248
127
126
125
126
129
127
126
128
254
83
128
126
125
125
125
248
127
126
125
126
129
127
126
128
254
83
128
126
125
125
125
248
112
126
125
127
129
127
126
128
254
83
128
126
125
125
125
248
112
126
125
127
129
127
126
128
254
84
128
126
125
125
126
248
112
126
125
127
129
127
126
128
254
84
128
126
125
125
126
248
112
126
125
127
129
127
126
128
254
84
128
126
125
125
126
248
112
126
125
127
129
127
126
128
254
84
128
126
125
125
126
248
112
126
125
127
129
127
126
128
254
84
128
126
125
125
126
248
113
126
126
127
129
127
126
128
254
87
128
127
126
126
126
248
115
127
127
127
128
127
127
128
254
89
128
128
127
126
126
248
118
128
128
127
126
128
128
129
254
81
129
131
129
127
127
248
122
129
130
128
125
128
129
129
254
92
131
134
131
129
129
248
126
131
132
128
124
128
130
129
254
84
132
136
134
130
130
248
114
131
133
129
123
129
131
130
254
93
134
138
136
132
131
248
115
132
134
129
122
129
131
130
254
82
135
140
137
133
131
248
115
132
134
129
121
129
132
130
254
84
135
140
138
133
132
248
116
133
134
129
121
129
132
130
254
85
135
141
138
133
132
248
115
132
134
129
122
129
131
130
254
82
135
140
137
133
131
248
114
132
133
129
122
129
131
130
254
94
134
138
136
133
131
248
126
131
132
129
123
128
130
129
254
85
133
135
133
132
130
248
122
129
130
128
125
128
129
129
254
92
132
132
131
130
129
248
118
128
128
128
127
127
128
128
254
81
130
129
128
128
128
248
112
126
126
127
129
127
126
127
254
85
128
126
125
126
126
248
124
125
124
126
130
127
125
127
254
92
126
123
123
125
125
248
124
125
124
126
130
127
125
127
254
91
126
123
123
124
125
248
124
125
124
126
130
127
125
127
254
91
126
123
123
124
125
248
124
125
124
126
130
127
125
127
254
91
126
123
123
124
125
248
124
125
124
126
130
127
125
127
254
92
126
123
123
125
125
248
124
125
124
126
130
127
125
127
254
93
126
123
124
125
125
248
124
125
124
126
130
127
125
127
254
93
126
123
124
125
125
248
126
125
125
126
130
127
126
127
254
94
126
124
124
125
125
248
127
126
125
126
130
127
126
127
254
94
126
124
124
125
125
248
112
126
125
127
130
127
126
127
254
95
126
124
124
125
126
248
127
126
125
127
129
127
126
127
254
95
126
124
124
125
126
248
127
126
125
127
129
127
126
127
254
95
126
124
124
125
126
248
127
126
125
127
129
127
126
127
254
95
126
124
124
125
126
248
127
126
125
127
129
127
126
127
254
95
126
124
124
125
126
248
127
126
125
127
129
127
126
127
254
80
126
124
125
125
126
248
127
126
125
127
129
127
126
127
254
80
126
124
125
125
126
248
127
126
125
127
129
127
126
127
254
82
126
125
125
126
126
248
127
126
125
127
129
127
126
127
254
82
126
125
125
126
126
248
127
126
125
127
129
127
126
127
254
82
126
125
125
126
126
248
112
126
126
127
129
127
126
127
254
82
126
125
125
126
126
248
112
126
126
127
129
127
126
127
254
82
126
125
125
126
126
248
112
126
126
127
129
127
126
127
254
82
126
125
125
126
126
248
112
126
126
127
129
127
126
127
254
82
126
125
125
126
126
248
112
126
126
127
129
127
126
127
254
83
127
125
125
126
126
248
127
126
126
127
128
127
126
127
254
85
127
126
126
126
126
248
114
127
127
127
127
127
127
128
254
91
128
127
127
128
127
248
121
129
129
128
126
128
129
128
254
82
129
129
129
129
128
248
122
130
130
128
125
128
129
128
254
84
129
129
129
130
129
248
122
130
130
128
125
128
129
128
254
84
129
129
129
130
129
248
121
129
130
128
125
128
129
128
254
83
129
129
129
129
129
248
118
128
128
128
127
127
128
128
254
94
128
128
128
128
128
248
113
127
126
127
128
127
127
127
254
87
127
126
126
127
127
248
112
126
126
127
129
127
126
127
254
82
126
125
125
126
126
248
112
126
126
127
129
127
126
127
254
82
126
125
125
126
126
252
107
31
127
33
48
248
112
126
126
127
129
127
126
127
254
82
126
125
125
126
126
255
61
31
31
248
112
126
126
127
129
127
126
127
254
82
126
125
125
126
126
248
112
126
126
127
129
127
126
127
254
83
126
125
126
126
126
250
122
0
248
112
126
126
127
129
127
126
127
254
84
126
126
126
126
126
248
112
126
126
127
129
127
126
127
254
85
127
126
126
126
126
248
112
126
126
127
129
127
126
127
254
85
127
126
126
126
126
248
112
126
126
127
129
127
126
127
254
82
126
125
125
126
126
248
112
125
125
127
130
126
126
129
254
85
128
127
126
125
125
248
127
129
131
130
125
127
130
131
254
93
133
139
137
132
130
248
121
137
145
135
113
129
140
130
254
91
136
151
154
148
144
248
119
140
149
136
110
130
142
120
254
95
121
137
150
150
147
249
72
79
248
115
133
136
130
120
129
133
110
254
80
101
110
128
135
136
248
115
126
125
126
129
127
126
116
254
86
106
110
118
124
126
248
123
125
123
126
131
127
125
126
254
84
123
122
122
123
124
248
126
126
124
126
130
127
125
128
254
81
128
125
124
125
125
248
127
126
125
126
130
127
125
128
254
83
128
126
125
125
125
248
127
126
125
126
129
127
126
128
254
83
128
126
125
125
125
248
127
126
125
126
129
127
126
128
254
83
128
126
125
125
125
248
127
126
125
126
129
127
126
128
254
83
128
126
125
125
125
248
127
126
125
126
129
127
126
128
254
83
128
126
125
125
125
248
112
126
125
127
129
127
126
128
254
83
128
126
125
125
125
248
112
126
125
127
129
127
126
128
254
84
128
126
125
125
126
248
112
126
125
127
129
127
126
128
254
84
128
126
125
125
126
248
112
126
125
127
129
127
126
128
254
84
128
126
125
125
126
248
112
126
125
127
129
127
126
128
254
84
128
126
125
125
126
248
112
126
125
127
129
127
126
128
254
84
128
126
125
125
126
248
113
126
126
127
129
127
126
128
254
87
128
127
126
126
126
248
114
127
126
127
128
127
127
128
254
89
128
128
127
126
126
248
119
128
128
127
127
128
128
129
254
81
129
131
129
127
127
248
122
129
130
128
125
128
129
129
254
90
131
133
131
128
129
248
124
130
131
128
124
128
130
129
254
84
132
136
134
130
130
248
114
131
133
129
123
129
131
130
254
92
134
138
136
132
130
248
115
132
134
129
122
129
131
130
254
82
135
140
137
133
131
248
115
132
134
129
121
129
132
130
254
84
135
140
138
133
132
248
116
133
134
129
121
129
132
130
254
85
135
141
138
133
132
248
114
132
134
129
121
129
131
130
254
82
135
140
137
133
131
248
114
132
133
129
122
129
131
130
254
94
134
138
136
133
131
248
126
131
132
129
123
128
130
129
254
86
133
135
134
132
130
248
122
129
130
128
125
128
129
129
254
93
132
133
131
130
129
248
118
128
128
128
127
127
128
128
254
82
130
129
128
129
128
248
112
126
126
127
129
127
126
127
254
85
128
126
125
126
126
248
125
125
124
127
130
127
125
127
254
92
126
123
123
125
125
248
124
125
124
126
130
127
125
127
254
91
126
123
123
124
125
248
124
125
124
126
130
127
125
127
254
91
126
123
123
124
125
248
124
125
124
126
130
127
125
127
254
91
126
123
123
124
125
248
124
125
124
126
130
127
125
127
254
92
126
123
123
125
125
248
124
125
124
126
130
127
125
127
254
93
126
123
124
125
125
248
124
125
124
126
130
127
125
127
254
93
126
123
124
125
125
248
126
125
125
126
130
127
126
127
254
94
126
124
124
125
125
248
127
125
125
127
130
127
126
127
254
94
126
124
124
125
125
248
112
126
125
127
130
127
126
127
254
95
126
124
124
125
126
248
127
126
125
127
129
127
126
127
254
95
126
124
124
125
126
248
127
126
125
127
129
127
126
127
254
95
126
124
124
125
126
248
127
126
125
127
129
127
126
127
254
95
126
124
124
125
126
248
127
126
125
127
129
127
126
127
254
95
126
124
124
125
126
248
127
126
125
127
129
127
126
127
254
80
126
124
125
125
126
248
127
126
125
127
129
127
126
127
254
80
126
124
125
125
126
248
127
126
125
127
129
127
126
127
254
82
126
125
125
126
126
248
127
126
125
127
129
127
126
127
254
82
126
125
125
126
126
248
127
126
125
127
129
127
126
127
254
82
126
125
125
126
126
248
112
126
126
127
129
127
126
127
254
82
126
125
125
126
126
248
112
126
126
127
129
127
126
127
254
82
126
125
125
126
126
248
112
126
126
127
129
127
126
127
254
82
126
125
125
126
126
248
112
126
126
127
129
127
126
127
254
83
127
125
125
126
126
248
112
126
126
127
129
127
126
127
254
83
127
125
125
126
126
248
112
126
126
127
129
127
126
127
254
84
127
125
126
126
126
248
113
127
127
127
127
127
127
127
254
90
127
127
127
128
127
248
121
129
129
128
126
128
129
128
254
80
129
128
128
129
128
248
121
129
130
128
125
128
129
128
254
84
129
129
129
130
129
248
122
130
130
128
125
128
129
128
254
84
129
129
129
130
129
248
121
129
130
128
125
128
129
128
254
83
129
129
129
129
129
248
118
128
128
128
127
127
128
128
254
94
128
128
128
128
128
248
113
127
126
127
128
127
127
127
254
87
127
126
126
127
127
248
112
126
126
127
129
127
126
127
254
82
126
125
125
126
126
248
112
126
126
127
129
127
126
127
254
82
126
125
125
126
126
248
112
126
126
127
129
127
126
127
254
82
126
125
125
126
126
248
112
126
126
127
129
127
126
127
254
82
126
125
125
126
126
248
112
126
126
127
129
127
126
127
254
83
126
125
126
126
126
248
112
126
126
127
129
127
126
127
254
85
127
126
126
126
126
248
112
126
126
127
129
127
126
127
254
85
127
126
126
126
126
248
112
126
126
127
129
127
126
127
254
85
127
126
126
126
126
248
112
126
126
127
129
127
126
127
254
82
126
125
125
126
126
248
127
125
125
127
130
126
126
128
254
82
127
126
125
125
125
248
124
128
130
129
125
127
130
131
254
89
133
138
135
131
130
248
121
137
144
135
114
128
140
131
254
88
136
151
153
147
143
248
122
141
149
136
110
130
143
121
254
86
123
139
151
151
148
252
107
31
127
33
48
249
72
79
255
61
31
31
248
118
134
137
131
119
129
134
110
254
86
102
112
129
136
137
248
116
127
126
126
129
127
126
115
254
85
105
110
118
124
126
248
122
125
123
126
131
127
125
125
254
82
122
122
121
123
124
250
122
0
248
125
125
124
126
130
127
125
128
254
80
128
125
124
124
125
248
127
126
125
126
130
127
125
128
254
82
128
126
124
125
125
248
127
126
125
126
129
127
126
128
254
83
128
126
125
125
125
248
127
126
125
126
129
127
126
128
254
83
128
126
125
125
125
248
127
126
125
126
129
127
126
128
254
83
128
126
125
125
125
248
127
126
125
126
129
127
126
128
254
83
128
126
125
125
125
248
127
126
125
126
129
127
126
128
254
83
128
126
125
125
125
248
112
126
125
127
129
127
126
128
254
84
128
126
125
125
126
248
112
126
125
127
129
127
126
128
254
84
128
126
125
125
126
248
112
126
125
127
129
127
126
128
254
84
128
126
125
125
126
248
112
126
125
127
129
127
126
128
254
84
128
126
125
125
126
248
112
126
125
127
129
127
126
128
254
84
128
126
125
125
126
248
113
126
126
127
129
127
126
128
254
86
128
126
126
126
126
248
114
127
126
127
128
127
127
128
254
89
128
128
127
126
126
248
118
128
128
127
127
128
128
128
254
81
129
131
129
127
127
248
122
129
130
128
125
128
129
129
254
88
130
133
131
128
128
248
124
130
131
128
124
128
130
129
254
84
132
136
134
130
130
248
114
131
133
129
123
129
131
130
254
89
133
138
135
131
130
248
115
132
134
129
122
129
131
130
254
81
135
139
137
133
131
248
115
132
134
129
121
129
132
130
254
83
135
140
138
133
131
248
116
133
134
129
121
129
132
130
254
85
135
141
138
133
132
248
114
132
134
129
121
129
131
130
254
82
135
140
137
133
131
248
114
132
133
129
122
129
131
130
254
94
134
138
136
133
131
248
126
131
132
129
123
128
130
129
254
87
133
136
134
132
130
248
122
129
130
128
125
128
129
129
254
94
132
133
131
131
129
248
118
128
128
128
127
127
128
128
254
82
130
129
128
129
128
248
112
126
126
127
129
127
126
127
254
86
128
126
125
127
126
248
125
125
124
127
130
127
125
127
254
92
126
123
123
125
125
248
124
125
124
126
130
127
125
127
254
91
126
123
123
124
125
248
124
125
124
126
130
127
125
127
254
91
126
123
123
124
125
248
124
125
124
126
130
127
125
127
254
91
126
123
123
124
125
248
124
125
124
126
130
127
125
127
254
92
126
123
123
125
125
248
124
125
124
126
130
127
125
127
254
92
126
123
123
125
125
248
124
125
124
126
130
127
125
127
254
93
126
123
124
125
125
248
124
125
124
126
130
127
125
127
254
94
126
124
124
125
125
248
126
125
125
126
130
127
126
127
254
94
126
124
124
125
125
248
112
126
125
127
130
127
126
127
254
95
126
124
124
125
126
248
127
126
125
127
129
127
126
127
254
95
126
124
124
125
126
248
127
126
125
127
129
127
126
127
254
95
126
124
124
125
126
248
127
126
125
127
129
127
126
127
254
95
126
124
124
125
126
248
127
126
125
127
129
127
126
127
254
95
126
124
124
125
126
248
127
126
125
127
129
127
126
127
254
80
126
124
125
125
126
248
127
126
125
127
129
127
126
127
254
81
126
125
125
125
126
248
127
126
125
127
129
127
126
127
254
82
126
125
125
126
126
248
127
126
125
127
129
127
126
127
254
82
126
125
125
126
126
248
127
126
125
127
129
127
126
127
254
82
126
125
125
126
126
248
127
126
125
127
129
127
126
127
254
82
126
125
125
126
126
248
112
126
126
127
129
127
126
127
254
82
126
125
125
126
126
248
112
126
126
127
129
127
126
127
254
82
126
125
125
126
126
248
112
126
126
127
129
127
126
127
254
83
127
125
125
126
126
248
112
126
126
127
129
127
126
127
254
83
127
125
125
126
126
248
112
126
126
127
129
127
126
127
254
84
127
125
126
126
126
248
114
127
127
127
128
127
127
127
254
89
127
127
127
127
127
248
119
128
129
128
126
128
128
128
254
80
129
128
128
129
128
248
121
129
130
128
125
128
129
128
254
84
129
129
129
130
129
248
122
130
130
128
125
128
129
128
254
84
129
129
129
130
129
248
121
129
130
128
125
128
129
128
254
83
129
129
129
129
129
248
118
128
128
128
127
127
128
128
254
95
128
128
128
129
128
248
113
127
126
127
128
127
127
127
254
88
127
127
126
127
127
248
112
126
126
127
129
127
126
127
254
82
126
125
125
126
126
248
112
126
126
127
129
127
126
127
254
82
126
125
125
126
126
248
112
126
126
127
129
127
126
127
254
82
126
125
125
126
126
248
112
126
126
127
129
127
126
127
254
82
126
125
125
126
126
248
112
126
126
127
129
127
126
127
254
83
126
125
126
126
126
248
112
126
126
127
129
127
126
127
254
84
126
126
126
126
126
248
112
126
126
127
129
127
126
127
254
85
127
126
126
126
126
248
112
126
126
127
129
127
126
127
254
85
127
126
126
126
126
248
112
126
126
127
129
127
126
127
254
82
126
125
125
126
126
248
127
125
125
127
130
126
126
128
254
82
127
126
125
125
125
248
123
128
129
129
126
127
129
131
254
84
132
137
134
130
129
248
118
136
143
134
115
128
139
131
254
85
136
151
152
146
142
248
124
141
150
136
110
130
143
122
254
90
124
141
152
151
148
249
72
79
248
120
135
138
131
118
129
135
110
254
92
103
113
131
137
138
248
115
127
126
126
128
128
126
114
254
84
104
109
118
124
127
248
122
125
123
126
131
127
125
125
254
80
121
121
121
123
124
248
125
125
124
126
130
127
125
128
254
80
128
125
124
124
125
248
127
126
125
126
130
127
125
128
254
82
128
126
124
125
125
248
126
126
125
126
129
127
125
128
254
83
128
126
125
125
125
248
127
126
125
126
129
127
126
128
254
83
128
126
125
125
125
248
127
126
125
126
129
127
126
128
254
83
128
126
125
125
125
248
127
126
125
126
129
127
126
128
254
83
128
126
125
125
125
248
127
126
125
126
129
127
126
128
254
83
128
126
125
125
125
252
107
31
127
33
48
248
112
126
125
127
129
127
126
128
254
84
128
126
125
125
126
255
61
31
31
248
112
126
125
127
129
127
126
128
254
84
128
126
125
125
126
248
112
126
125
127
129
127
126
128
254
84
128
126
125
125
126
250
122
0
248
112
126
125
127
129
127
126
128
254
84
128
126
125
125
126
248
112
126
125
127
129
127
126
128
254
84
128
126
125
125
126
248
113
126
126
127
129
127
126
128
254
85
128
126
125
126
126
248
114
127
126
127
128
127
127
128
254
88
128
128
126
126
126
248
118
128
128
127
127
128
128
128
254
95
129
130
128
127
127
248
122
129
130
128
125
128
129
129
254
88
130
133
131
128
128
248
124
130
131
128
124
128
130
129
254
82
132
136
133
130
129
248
114
131
133
129
123
129
131
130
254
89
133
138
135
131
130
248
115
132
134
129
122
129
131
130
254
80
134
139
137
133
131
248
115
132
134
129
121
129
132
130
254
82
135
140
137
133
131
248
116
133
134
129
121
129
132
130
254
85
135
141
138
133
132
248
114
132
134
129
121
129
131
130
254
82
135
140
137
133
131
248
114
132
133
129
122
129
131
130
254
94
134
138
136
133
131
248
126
131
132
129
123
128
130
129
254
87
133
136
134
132
130
248
122
129
130
128
125
128
129
129
254
94
132
133
131
131
129
248
118
128
128
128
127
127
128
128
254
83
130
130
128
129
128
248
112
126
126
127
128
127
127
127
254
88
128
126
126
127
127
248
127
125
125
127
130
127
126
127
254
93
126
124
123
125
125
248
124
125
124
126
130
127
125
127
254
91
126
123
123
124
125
248
124
125
124
126
130
127
125
127
254
91
126
123
123
124
125
248
124
125
124
126
130
127
125
127
254
91
126
123
123
124
125
248
124
125
124
126
130
127
125
127
254
92
126
123
123
125
125
248
124
125
124
126
130
127
125
127
254
93
126
123
124
125
125
248
124
125
124
126
130
127
125
127
254
93
126
123
124
125
125
248
125
125
125
126
130
127
125
127
254
94
126
124
124
125
125
248
126
125
125
126
130
127
126
127
254
94
126
124
124
125
125
248
127
126
125
126
130
127
126
127
254
94
126
124
124
125
125
248
127
126
125
127
129
127
126
127
254
95
126
124
124
125
126
248
127
126
125
127
129
127
126
127
254
95
126
124
124
125
126
248
127
126
125
127
129
127
126
127
254
95
126
124
124
125
126
248
127
126
125
127
129
127
126
127
254
95
126
124
124
125
126
248
127
126
125
127
129
127
126
127
254
80
126
124
125
125
126
248
127
126
125
127
129
127
126
127
254
81
126
125
125
125
126
248
127
126
125
127
129
127
126
127
254
81
126
125
125
125
126
248
127
126
125
127
129
127
126
127
254
82
126
125
125
126
126
248
127
126
125
127
129
127
126
127
254
82
126
125
125
126
126
248
127
126
125
127
129
127
126
127
254
82
126
125
125
126
126
248
112
126
126
127
129
127
126
127
254
82
126
125
125
126
126
248
112
126
126
127
129
127
126
127
254
82
126
125
125
126
126
248
112
126
126
127
129
127
126
127
254
82
126
125
125
126
126
248
112
126
126
127
129
127
126
127
254
82
126
125
125
126
126
248
112
126
126
127
129
127
126
127
254
84
127
125
126
126
126
248
114
127
127
127
128
127
127
127
254
88
127
126
127
127
127
248
119
128
129
128
126
128
128
128
254
95
128
128
128
129
128
248
121
129
130
128
125
128
129
128
254
84
129
129
129
130
129
248
122
130
130
128
125
128
129
128
254
84
129
129
129
130
129
248
121
129
130
128
125
128
129
128
254
83
129
129
129
129
129
248
118
128
128
128
127
127
128
128
254
95
128
128
128
129
128
248
114
127
127
127
128
127
127
127
254
89
127
127
127
127
127
248
112
126
126
127
129
127
126
127
254
82
126
125
125
126
126
248
112
126
126
127
129
127
126
127
254
82
126
125
125
126
126
248
112
126
126
127
129
127
126
127
254
82
126
125
125
126
126
248
112
126
126
127
129
127
126
127
254
82
126
125
125
126
126
248
112
126
126
127
129
127
126
127
254
83
126
125
126
126
126
248
112
126
126
127
129
127
126
127
254
84
126
126
126
126
126
248
112
126
126
127
129
127
126
127
254
84
126
126
126
126
126
248
112
126
126
127
129
127
126
127
254
85
127
126
126
126
126
248
112
126
126
127
129
127
126
127
254
83
126
125
126
126
126
248
127
125
125
127
130
126
126
128
254
82
127
126
125
125
125
248
123
127
129
129
127
127
129
131
254
95
132
135
133
129
128
248
117
136
142
134
116
128
138
131
254
83
137
151
151
145
141
248
124
141
150
136
109
130
143
123
254
95
126
142
153
152
148
249
72
79
248
124
135
140
132
117
129
136
111
254
81
104
114
132
138
139
248
117
127
127
127
128
128
127
113
254
84
103
108
119
125
127
248
121
125
123
126
131
127
125
124
254
94
120
120
121
123
124
248
125
125
124
126
130
127
125
128
254
80
128
125
124
124
125
248
127
126
125
126
130
127
125
128
254
82
128
126
124
125
125
248
127
126
125
126
129
127
126
128
254
83
128
126
125
125
125
248
127
126
125
126
129
127
126
128
254
83
128
126
125
125
125
248
127
126
125
126
129
127
126
128
254
83
128
126
125
125
125
248
127
126
125
126
129
127
126
128
254
83
128
126
125
125
125
248
112
126
125
127
129
127
126
128
254
83
128
126
125
125
125
248
112
126
125
127
129
127
126
128
254
84
128
126
125
125
126
248
112
126
125
127
129
127
126
128
254
84
128
126
125
125
126
248
112
126
125
127
129
127
126
128
254
84
128
126
125
125
126
248
112
126
125
127
129
127
126
128
254
84
128
126
125
125
126
248
112
126
125
127
129
127
126
128
254
84
128
126
125
125
126
248
113
126
126
127
129
127
126
128
254
85
128
126
125
126
126
248
114
127
126
127
128
127
127
128
254
88
128
128
126
126
126
248
118
128
128
127
127
128
128
128
254
95
129
130
128
127
127
248
121
129
129
128
125
128
129
129
254
88
130
133
131
128
128
248
124
130
131
128
124
128
130
129
254
82
132
136
133
130
129
252
107
31
127
33
48
248
114
131
133
129
123
129
131
130
254
89
133
138
135
131
130
255
61
31
31
248
115
132
134
129
122
129
131
130
254
95
134
139
137
132
131
248
115
132
134
129
121
129
132
130
254
82
135
140
137
133
131
250
122
0
248
116
133
134
129
121
129
132
130
254
85
135
141
138
133
132
248
115
132
134
129
121
129
132
130
254
82
135
140
137
133
131
248
114
132
133
129
122
129
131
130
254
94
134
138
136
133
131
248
127
131
132
129
123
128
131
129
254
87
133
136
134
132
130
248
124
130
131
128
125
128
129
129
254
94
132
133
131
131
129
248
117
128
128
128
126
127
128
128
254
84
130
130
129
129
128
248
113
126
126
127
128
127
127
128
254
88
128
126
126
127
127
248
127
125
125
127
130
127
126
127
254
95
126
124
124
125
126
248
124
125
124
126
130
127
125
127
254
91
126
123
123
124
125
248
124
125
124
126
130
127
125
127
254
91
126
123
123
124
125
248
124
125
124
126
130
127
125
127
254
91
126
123
123
124
125
248
124
125
124
126
130
127
125
127
254
92
126
123
123
125
125
248
124
125
124
126
130
127
125
127
254
93
126
123
124
125
125
248
124
125
124
126
130
127
125
127
254
93
126
123
124
125
125
248
125
125
125
126
130
127
125
127
254
94
126
124
124
125
125
248
126
125
125
126
130
127
126
127
254
94
126
124
124
125
125
248
127
126
125
126
130
127
126
127
254
94
126
124
124
125
125
248
127
126
125
127
129
127
126
127
254
95
126
124
124
125
126
248
127
126
125
127
129
127
126
127
254
95
126
124
124
125
126
248
127
126
125
127
129
127
126
127
254
95
126
124
124
125
126
248
127
126
125
127
129
127
126
127
254
95
126
124
124
125
126
248
127
126
125
127
129
127
126
127
254
80
126
124
125
125
126
248
127
126
125
127
129
127
126
127
254
80
126
124
125
125
126
248
127
126
125
127
129
127
126
127
254
81
126
125
125
125
126
248
127
126
125
127
129
127
126
127
254
82
126
125
125
126
126
248
127
126
125
127
129
127
126
127
254
82
126
125
125
126
126
248
112
126
126
127
129
127
126
127
254
82
126
125
125
126
126
248
112
126
126
127
129
127
126
127
254
82
126
125
125
126
126
248
112
126
126
127
129
127
126
127
254
82
126
125
125
126
126
248
112
126
126
127
129
127
126
127
254
82
126
125
125
126
126
248
112
126
126
127
129
127
126
127
254
83
127
125
125
126
126
248
112
126
126
127
129
127
126
127
254
84
127
125
126
126
126
248
114
127
127
127
128
127
127
127
254
88
127
126
127
127
127
248
119
128
129
128
126
128
128
128
254
95
128
128
128
129
128
248
121
129
130
128
125
128
129
128
254
83
129
129
129
129
129
248
122
130
130
128
125
128
129
128
254
84
129
129
129
130
129
248
121
129
130
128
125
128
129
128
254
83
129
129
129
129
129
248
118
128
129
128
126
127
128
128
254
95
128
128
128
129
128
248
114
127
127
127
128
127
127
127
254
89
127
127
127
127
127
248
112
126
126
127
129
127
126
127
254
82
126
125
125
126
126
248
112
126
126
127
129
127
126
127
254
82
126
125
125
126
126
248
112
126
126
127
129
127
126
127
254
82
126
125
125
126
126
248
112
126
126
127
129
127
126
127
254
82
126
125
125
126
126
248
112
126
126
127
129
127
126
127
254
83
126
125
126
126
126
248
112
126
126
127
129
127
126
127
254
84
126
126
126
126
126
248
112
126
126
127
129
127
126
127
254
84
126
126
126
126
126
248
112
126
126
127
129
127
126
127
254
85
127
126
126
126
126
248
112
126
126
127
129
127
126
127
254
83
126
125
126
126
126
248
127
125
125
127
130
126
126
128
254
81
127
125
125
125
125
248
120
127
128
129
127
126
128
131
254
92
131
134
132
129
128
248
116
135
141
134
117
128
137
132
254
95
137
150
150
144
140
248
125
141
150
136
109
130
143
124
254
83
127
144
154
152
148
249
72
79
248
125
136
141
132
116
129
136
111
254
89
105
116
134
140
140
248
117
128
127
127
127
128
127
113
254
85
102
108
119
126
128
248
120
125
123
126
131
127
124
124
254
92
119
120
120
123
124
248
125
125
124
126
130
127
125
128
254
95
127
125
124
124
125
248
127
126
125
126
130
127
125
128
254
82
128
126
124
125
125
248
127
126
125
126
129
127
126
128
254
83
128
126
125
125
125
248
127
126
125
126
129
127
126
128
254
83
128
126
125
125
125
248
127
126
125
126
129
127
126
128
254
83
128
126
125
125
125
248
127
126
125
126
129
127
126
128
254
83
128
126
125
125
125
248
127
126
125
126
129
127
126
128
254
83
128
126
125
125
125
248
112
126
125
127
129
127
126
128
254
84
128
126
125
125
126
248
112
126
125
127
129
127
126
128
254
84
128
126
125
125
126
248
112
126
125
127
129
127
126
128
254
84
128
126
125
125
126
248
112
126
125
127
129
127
126
128
254
84
128
126
125
125
126
248
112
126
125
127
129
127
126
128
254
84
128
126
125
125
126
248
112
126
125
127
129
127
126
128
254
85
128
126
125
126
126
248
113
127
126
127
128
127
126
128
254
87
128
127
126
126
126
248
117
128
128
127
127
128
127
128
254
95
129
130
128
127
127
248
122
129
129
128
126
128
129
129
254
87
130
133
130
128
128
248
124
130
131
128
124
128
130
129
254
81
132
135
133
130
129
248
112
131
132
129
123
129
130
130
254
89
133
138
135
131
130
248
115
132
134
129
122
129
131
130
254
95
134
139
137
132
131
248
115
132
134
129
121
129
132
130
254
82
135
140
137
133
131
248
116
133
134
129
121
129
132
130
254
85
135
141
138
133
132
248
116
133
134
129
121
129
132
130
254
82
135
140
137
133
131
248
114
132
133
129
122
129
131
130
254
95
134
139
136
133
131
248
112
131
132
129
123
129
131
129
254
88
134
136
134
132
130
248
124
130
131
128
124
128
130
129
254
95
132
133
132
131
129
248
119
128
129
128
126
128
128
128
254
84
130
130
129
129
128
248
114
127
126
127
128
127
127
128
254
89
128
127
126
127
127
248
127
125
125
127
130
127
126
127
254
80
127
124
124
125
126
252
107
31
127
33
48
255
61
31
31
248
124
125
124
126
130
127
125
127
254
91
126
123
123
124
125
248
124
125
124
126
130
127
125
127
254
91
126
123
123
124
125
248
124
125
124
126
130
127
125
127
254
91
126
123
123
124
125
250
122
0
248
124
125
124
126
130
127
125
127
254
92
126
123
123
125
125
248
124
125
124
126
130
127
125
127
254
92
126
123
123
125
125
248
124
125
124
126
130
127
125
127
254
93
126
123
124
125
125
248
126
125
125
126
130
127
126
127
254
94
126
124
124
125
125
248
126
125
125
126
130
127
126
127
254
94
126
124
124
125
125
248
112
126
125
127
130
127
126
127
254
95
126
124
124
125
126
248
127
126
125
127
129
127
126
127
254
95
126
124
124
125
126
248
127
126
125
127
129
127
126
127
254
95
126
124
124
125
126
248
127
126
125
127
129
127
126
127
254
95
126
124
124
125
126
248
127
126
125
127
129
127
126
127
254
95
126
124
124
125
126
248
127
126
125
127
129
127
126
127
254
80
126
124
125
125
126
248
127
126
125
127
129
127
126
127
254
80
126
124
125
125
126
248
127
126
125
127
129
127
126
127
254
81
126
125
125
125
126
248
127
126
125
127
129
127
126
127
254
82
126
125
125
126
126
248
127
126
125
127
129
127
126
127
254
82
126
125
125
126
126
248
127
126
125
127
129
127
126
127
254
82
126
125
125
126
126
248
112
126
126
127
129
127
126
127
254
82
126
125
125
126
126
248
112
126
126
127
129
127
126
127
254
82
126
125
125
126
126
248
112
126
126
127
129
127
126
127
254
82
126
125
125
126
126
248
112
126
126
127
129
127
126
127
254
82
126
125
125
126
126
248
112
126
126
127
129
127
126
127
254
83
127
125
125
126
126
248
114
127
127
127
128
127
127
127
254
88
127
126
127
127
127
248
119
128
129
128
126
128
128
128
254
95
128
128
128
129
128
248
121
129
130
128
125
128
129
128
254
83
129
129
129
129
129
248
122
130
130
128
125
128
129
128
254
84
129
129
129
130
129
248
121
129
130
128
125
128
129
128
254
83
129
129
129
129
129
248
118
128
129
128
126
127
128
128
254
95
128
128
128
129
128
248
114
127
127
127
128
127
127
127
254
89
127
127
127
127
127
248
112
126
126
127
129
127
126
127
254
84
126
126
126
126
126
248
112
126
126
127
129
127
126
127
254
82
126
125
125
126
126
248
112
126
126
127
129
127
126
127
254
82
126
125
125
126
126
248
112
126
126
127
129
127
126
127
254
82
126
125
125
126
126
248
112
126
126
127
129
127
126
127
254
83
126
125
126
126
126
248
112
126
126
127
129
127
126
127
254
84
126
126
126
126
126
248
112
126
126
127
129
127
126
127
254
84
126
126
126
126
126
248
112
126
126
127
129
127
126
127
254
85
127
126
126
126
126
248
112
126
126
127
129
127
126
127
254
84
127
125
126
126
126
248
112
125
125
127
130
127
126
128
254
81
127
125
125
125
125
248
119
127
128
128
128
126
128
130
254
88
131
133
131
128
127
248
114
134
140
133
118
128
137
132
254
90
137
149
149
142
139
248
126
141
150
136
109
130
143
125
254
86
129
145
154
152
148
249
72
79
248
113
137
142
133
115
129
137
112
254
80
106
118
136
141
141
248
117
128
128
127
127
128
127
112
254
84
101
107
119
126
129
248
119
125
123
126
131
127
124
123
254
90
118
119
120
123
124
248
125
125
124
126
130
127
125
128
254
95
127
125
124
124
125
248
127
126
125
126
130
127
125
128
254
82
128
126
124
125
125
248
127
126
125
126
130
127
125
128
254
83
128
126
125
125
125
248
127
126
125
126
129
127
126
128
254
83
128
126
125
125
125
248
127
126
125
126
129
127
126
128
254
83
128
126
125
125
125
248
127
126
125
126
129
127
126
128
254
83
128
126
125
125
125
248
112
126
125
127
129
127
126
128
254
83
128
126
125
125
125
248
112
126
125
127
129
127
126
128
254
84
128
126
125
125
126
248
112
126
125
127
129
127
126
128
254
84
128
126
125
125
126
248
112
126
125
127
129
127
126
128
254
84
128
126
125
125
126
248
112
126
125
127
129
127
126
128
254
84
128
126
125
125
126
248
112
126
125
127
129
127
126
128
254
84
128
126
125
125
126
248
113
126
126
127
129
127
126
128
254
85
128
126
125
126
126
248
113
127
126
127
128
127
126
128
254
87
128
127
126
126
126
248
116
128
127
127
127
128
127
128
254
95
129
130
128
127
127
248
121
129
129
128
126
128
128
129
254
86
130
132
130
128
128
248
123
130
131
128
124
128
129
129
254
80
132
135
133
129
129
248
112
131
132
129
123
129
130
130
254
89
133
138
135
131
130
248
115
132
134
129
122
129
131
130
254
94
134
139
136
132
131
248
115
132
134
129
121
129
132
130
254
82
135
140
137
133
131
248
116
133
134
129
121
129
132
130
254
85
135
141
138
133
132
248
116
133
134
129
121
129
132
130
254
82
135
140
137
133
131
248
114
132
133
129
122
129
131
130
254
95
134
139
136
133
131
248
113
131
133
129
123
129
131
129
254
89
134
136
135
132
130
248
124
130
131
128
124
128
130
129
254
81
132
134
132
131
130
248
119
128
129
128
126
128
128
128
254
85
131
130
129
129
128
248
114
127
126
127
128
127
127
128
254
90
129
127
126
127
127
248
127
125
125
127
130
127
126
127
254
80
127
124
124
125
126
248
124
125
124
126
130
127
125
127
254
91
126
123
123
124
125
248
124
125
124
126
130
127
125
127
254
91
126
123
123
124
125
248
124
125
124
126
130
127
125
127
254
91
126
123
123
124
125
248
124
125
124
126
130
127
125
127
254
92
126
123
123
125
125
248
124
125
124
126
130
127
125
127
254
92
126
123
123
125
125
248
124
125
124
126
130
127
125
127
254
93
126
123
124
125
125
248
124
125
124
126
130
127
125
127
254
94
126
124
124
125
125
248
126
125
125
126
130
127
126
127
254
94
126
124
124
125
125
248
127
125
125
127
130
127
126
127
254
95
126
124
124
125
126
248
112
126
125
127
130
127
126
127
254
95
126
124
124
125
126
252
107
31
127
33
48
248
127
126
125
127
129
127
126
127
254
95
126
124
124
125
126
255
61
31
31
248
127
126
125
127
129
127
126
127
254
95
126
124
124
125
126
248
127
126
125
127
129
127
126
127
254
95
126
124
124
125
126
250
122
0
248
127
126
125
127
129
127
126
127
254
80
126
124
125
125
126
248
127
126
125
127
129
127
126
127
254
80
126
124
125
125
126
248
127
126
125
127
129
127
126
127
254
82
126
125
125
126
126
248
127
126
125
127
129
127
126
127
254
82
126
125
125
126
126
248
127
126
125
127
129
127
126
127
254
82
126
125
125
126
126
248
127
126
125
127
129
127
126
127
254
82
126
125
125
126
126
248
112
126
126
127
129
127
126
127
254
82
126
125
125
126
126
248
112
126
126
127
129
127
126
127
254
82
126
125
125
126
126
248
112
126
126
127
129
127
126
127
254
83
127
125
125
126
126
248
112
126
126
127
129
127
126
127
254
83
127
125
125
126
126
248
112
126
126
127
129
127
126
127
254
83
127
125
125
126
126
248
114
127
127
127
128
127
127
127
254
87
127
126
126
127
127
248
117
128
128
128
126
127
128
128
254
95
128
128
128
129
128
248
121
129
130
128
125
128
129
128
254
83
129
129
129
129
129
248
122
130
130
128
125
128
129
128
254
84
129
129
129
130
129
248
121
129
130
128
125
128
129
128
254
84
129
129
129
130
129
248
118
128
129
128
126
127
128
128
254
95
128
128
128
129
128
248
114
127
127
127
128
127
127
127
254
89
127
127
127
127
127
248
112
126
126
127
129
127
126
127
254
84
126
126
126
126
126
248
112
126
126
127
129
127
126
127
254
82
126
125
125
126
126
248
112
126
126
127
129
127
126
127
254
82
126
125
125
126
126
248
112
126
126
127
129
127
126
127
254
82
126
125
125
126
126
248
112
126
126
127
129
127
126
127
254
83
126
125
126
126
126
248
112
126
126
127
129
127
126
127
254
84
126
126
126
126
126
248
112
126
126
127
129
127
126
127
254
85
127
126
126
126
126
248
112
126
126
127
129
127
126
127
254
85
127
126
126
126
126
248
112
126
126
127
129
127
126
127
254
85
127
126
126
126
126
248
127
125
125
127
129
127
126
128
254
81
127
125
125
125
125
248
117
126
127
128
128
126
128
130
254
85
130
133
130
127
127
248
112
133
139
133
119
128
136
132
254
86
137
148
148
141
138
248
126
141
150
136
110
129
143
125
254
89
130
146
155
152
148
249
72
79
248
115
137
143
133
115
129
138
112
254
87
107
120
138
142
142
248
119
129
129
127
126
128
128
112
254
86
101
107
120
127
129
248
118
125
123
126
131
127
124
122
254
87
117
118
119
123
124
248
125
125
124
126
130
127
125
128
254
95
127
125
124
124
125
248
127
126
125
126
130
127
125
128
254
82
128
126
124
125
125
248
127
126
125
126
129
127
126
128
254
83
128
126
125
125
125
248
127
126
125
126
129
127
126
128
254
83
128
126
125
125
125
248
127
126
125
126
129
127
126
128
254
83
128
126
125
125
125
248
127
126
125
126
129
127
126
128
254
83
128
126
125
125
125
248
127
126
125
126
129
127
126
128
254
83
128
126
125
125
125
248
112
126
125
127
129
127
126
128
254
84
128
126
125
125
126
248
112
126
125
127
129
127
126
128
254
84
128
126
125
125
126
248
112
126
125
127
129
127
126
128
254
84
128
126
125
125
126
248
112
126
125
127
129
127
126
128
254
84
128
126
125
125
126
248
112
126
125
127
129
127
126
128
254
84
128
126
125
125
126
248
112
126
125
127
129
127
126
128
254
84
128
126
125
125
126
248
113
127
126
127
128
127
126
128
254
87
128
127
126
126
126
248
115
127
127
127
127
128
127
128
254
95
129
130
128
127
127
248
121
129
129
128
126
128
128
129
254
86
130
132
130
128
128
248
123
130
131
128
124
128
129
129
254
95
131
135
133
129
129
248
127
131
132
128
123
129
130
130
254
88
133
137
135
131
130
248
114
132
133
129
122
129
131
130
254
94
134
139
136
132
131
248
116
132
134
129
122
129
132
130
254
82
135
140
137
133
131
248
116
133
134
129
121
129
132
130
254
85
135
141
138
133
132
248
115
132
134
129
121
129
132
130
254
83
135
140
138
133
131
248
114
132
133
129
122
129
131
130
254
80
134
139
137
133
131
248
113
131
133
129
123
129
131
129
254
91
134
137
135
132
131
248
124
130
131
128
124
128
130
129
254
82
133
134
132
131
130
248
119
128
129
128
126
128
128
128
254
86
131
131
129
129
128
248
115
127
127
127
128
127
127
128
254
90
129
127
126
127
127
248
126
125
125
127
129
127
126
127
254
80
127
124
124
125
126
248
124
125
124
126
130
127
125
127
254
91
126
123
123
124
125
248
124
125
124
126
130
127
125
127
254
91
126
123
123
124
125
248
124
125
124
126
130
127
125
127
254
91
126
123
123
124
125
248
124
125
124
126
130
127
125
127
254
92
126
123
123
125
125
248
124
125
124
126
130
127
125
127
254
92
126
123
123
125
125
248
124
125
124
126
130
127
125
127
254
93
126
123
124
125
125
248
124
125
124
126
130
127
125
127
254
94
126
124
124
125
125
248
126
125
125
126
130
127
126
127
254
94
126
124
124
125
125
248
112
126
125
127
130
127
126
127
254
94
126
124
124
125
125
248
127
126
125
127
129
127
126
127
254
95
126
124
124
125
126
248
127
126
125
127
129
127
126
127
254
95
126
124
124
125
126
248
127
126
125
127
129
127
126
127
254
95
126
124
124
125
126
248
127
126
125
127
129
127
126
127
254
95
126
124
124
125
126
248
127
126
125
127
129
127
126
127
254
80
126
124
125
125
126
248
127
126
125
127
129
127
126
127
254
80
126
124
125
125
126
248
127
126
125
127
129
127
126
127
254
81
126
125
125
125
126
248
127
126
125
127
129
127
126
127
254
82
126
125
125
126
126
248
127
126
125
127
129
127
126
127
254
82
126
125
125
126
126
248
127
126
125
127
129
127
126
127
254
82
126
125
125
126
126
248
112
126
126
127
129
127
126
127
254
82
126
125
125
126
126
252
107
31
127
33
48
248
112
126
126
127
129
127
126
127
254
82
126
125
125
126
126
255
61
31
31
248
112
126
126
127
129
127
126
127
254
82
126
125
125
126
126
248
112
126
126
127
129
127
126
127
254
83
127
125
125
126
126
250
122
0
248
112
126
126
127
129
127
126
127
254
83
127
125
125
126
126
248
114
127
127
127
128
127
127
127
254
87
127
126
126
127
127
248
118
128
128
128
127
127
128
128
254
94
128
128
128
128
128
248
121
129
130
128
125
128
129
128
254
83
129
129
129
129
129
248
123
130
131
128
125
128
129
128
254
84
129
129
129
130
129
248
121
129
130
128
125
128
129
128
254
84
129
129
129
130
129
248
119
128
129
128
126
128
128
128
254
80
129
128
128
129
128
248
114
127
127
127
128
127
127
127
254
89
127
127
127
127
127
248
112
126
126
127
129
127
126
127
254
84
126
126
126
126
126
248
127
126
125
127
129
127
126
127
254
82
126
125
125
126
126
248
112
126
126
127
129
127
126
127
254
82
126
125
125
126
126
248
112
126
126
127
129
127
126
127
254
82
126
125
125
126
126
248
112
126
126
127
129
127
126
127
254
83
126
125
126
126
126
248
112
126
126
127
129
127
126
127
254
83
126
125
126
126
126
248
112
126
126
127
129
127
126
127
254
85
127
126
126
126
126
248
112
126
126
127
129
127
126
127
254
85
127
126
126
126
126
248
112
126
126
127
129
127
126
127
254
85
127
126
126
126
126
248
127
125
125
127
129
127
126
128
254
80
126
125
125
125
125
248
116
126
127
128
128
126
127
130
254
82
130
132
129
127
126
248
126
133
138
132
120
128
135
132
254
80
136
147
146
140
137
248
125
140
149
136
110
129
143
126
254
90
131
147
155
152
147
249
72
79
248
119
138
144
134
114
129
139
113
254
95
109
122
139
144
143
248
119
129
129
128
125
128
129
111
254
88
100
107
121
128
130
248
117
125
123
126
130
127
124
122
254
84
115
117
119
123
124
248
125
125
124
126
130
127
125
128
254
95
127
125
124
124
125
248
127
126
125
126
130
127
125
128
254
82
128
126
124
125
125
248
126
126
125
126
129
127
125
128
254
83
128
126
125
125
125
248
127
126
125
126
129
127
126
128
254
83
128
126
125
125
125
248
127
126
125
126
129
127
126
128
254
83
128
126
125
125
125
248
127
126
125
126
129
127
126
128
254
83
128
126
125
125
125
248
112
126
125
127
129
127
126
128
254
83
128
126
125
125
125
248
112
126
125
127
129
127
126
128
254
83
128
126
125
125
125
248
112
126
125
127
129
127
126
128
254
84
128
126
125
125
126
248
112
126
125
127
129
127
126
128
254
84
128
126
125
125
126
248
112
126
125
127
129
127
126
128
254
84
128
126
125
125
126
248
112
126
125
127
129
127
126
128
254
84
128
126
125
125
126
248
112
126
125
127
129
127
126
128
254
85
128
126
125
126
126
248
112
126
126
127
128
127
126
128
254
87
128
127
126
126
126
248
114
127
127
127
127
127
127
128
254
93
129
129
128
126
127
248
121
129
129
128
126
128
128
129
254
86
130
132
130
128
128
248
123
130
131
128
124
128
129
129
254
94
131
135
132
129
129
248
126
131
132
128
123
129
130
129
254
88
133
137
135
131
130
248
114
132
133
129
122
129
131
130
254
94
134
139
136
132
131
248
116
132
134
129
122
129
132
130
254
82
135
140
137
133
131
248
116
133
134
129
121
129
132
130
254
85
135
141
138
133
132
248
116
133
134
129
121
129
132
130
254
83
135
140
138
133
131
248
115
132
134
129
122
129
131
130
254
80
134
139
137
133
131
248
113
131
133
129
123
129
131
129
254
91
134
137
135
132
131
248
124
130
131
128
124
128
130
129
254
82
133
134
132
131
130
248
119
128
129
128
126
128
128
128
254
88
131
131
130
130
128
248
115
127
127
127
128
127
127
128
254
91
129
127
127
127
127
248
127
126
125
127
129
127
126
127
254
81
127
124
124
126
126
248
124
125
124
126
130
127
125
127
254
91
126
123
123
124
125
248
124
125
124
126
130
127
125
127
254
91
126
123
123
124
125
248
124
125
124
126
130
127
125
127
254
91
126
123
123
124
125
248
124
125
124
126
130
127
125
127
254
91
126
123
123
124
125
248
124
125
124
126
130
127
125
127
254
92
126
123
123
125
125
248
124
125
124
126
130
127
125
127
254
93
126
123
124
125
125
248
124
125
124
126
130
127
125
127
254
94
126
124
124
125
125
248
126
125
125
126
130
127
126
127
254
94
126
124
124
125
125
248
127
126
125
126
130
127
126
127
254
94
126
124
124
125
125
248
127
126
125
127
129
127
126
127
254
95
126
124
124
125
126
248
127
126
125
127
129
127
126
127
254
95
126
124
124
125
126
248
127
126
125
127
129
127
126
127
254
95
126
124
124
125
126
248
127
126
125
127
129
127
126
127
254
95
126
124
124
125
126
248
127
126
125
127
129
127
126
127
254
95
126
124
124
125
126
248
127
126
125
127
129
127
126
127
254
80
126
124
125
125
126
248
127
126
125
127
129
127
126
127
254
81
126
125
125
125
126
248
127
126
125
127
129
127
126
127
254
82
126
125
125
126
126
248
127
126
125
127
129
127
126
127
254
82
126
125
125
126
126
248
127
126
125
127
129
127
126
127
254
82
126
125
125
126
126
248
112
126
126
127
129
127
126
127
254
82
126
125
125
126
126
248
112
126
126
127
129
127
126
127
254
82
126
125
125
126
126
248
112
126
126
127
129
127
126
127
254
82
126
125
125
126
126
248
112
126
126
127
129
127
126
127
254
82
126
125
125
126
126
248
112
126
126
127
129
127
126
127
254
82
126
125
125
126
126
248
113
127
126
127
128
127
127
127
254
87
127
126
126
127
127
248
118
128
128
128
127
127
128
128
254
94
128
128
128
128
128
248
121
129
130
128
125
128
129
128
254
83
129
129
129
129
129
248
123
130
131
128
125
128
129
128
254
84
129
129
129
130
129
248
121
129
130
128
125
128
129
128
254
84
129
129
129
130
129
248
119
128
129
128
126
128
128
128
254
82
129
128
129
129
129
248
113
127
127
127
127
127
127
127
254
90
127
127
127
128
127
252
107
31
127
33
48
255
61
31
31
248
112
126
126
127
129
127
126
127
254
85
127
126
126
126
126
248
112
126
126
127
129
127
126
127
254
82
126
125
125
126
126
248
112
126
126
127
129
127
126
127
254
82
126
125
125
126
126
250
122
0
248
112
126
126
127
129
127
126
127
254
82
126
125
125
126
126
248
112
126
126
127
129
127
126
127
254
82
126
125
125
126
126
248
112
126
126
127
129
127
126
127
254
83
126
125
126
126
126
248
112
126
126
127
129
127
126
127
254
84
126
126
126
126
126
248
112
126
126
127
129
127
126
127
254
85
127
126
126
126
126
248
112
126
126
127
129
127
126
127
254
85
127
126
126
126
126
248
112
126
125
127
129
127
126
128
254
80
126
125
125
125
125
248
116
126
126
128
129
126
127
130
254
95
129
131
129
126
126
248
121
132
136
132
120
127
134
132
254
91
136
146
145
138
136
248
126
140
149
136
110
129
143
127
254
91
132
148
155
151
147
249
72
79
248
122
138
145
134
113
130
140
114
254
86
110
124
141
145
144
248
121
130
130
128
125
128
129
111
254
91
100
107
122
129
131
248
116
125
123
126
130
127
124
121
254
82
114
116
119
123
124
248
125
125
124
126
130
127
125
128
254
93
126
125
123
124
125
248
127
126
125
126
130
127
125
128
254
82
128
126
124
125
125
248
127
126
125
126
130
127
125
128
254
83
128
126
125
125
125
248
127
126
125
126
129
127
126
128
254
83
128
126
125
125
125
248
127
126
125
126
129
127
126
128
254
83
128
126
125
125
125
248
127
126
125
126
129
127
126
128
254
83
128
126
125
125
125
248
127
126
125
126
129
127
126
128
254
83
128
126
125
125
125
248
112
126
125
127
129
127
126
128
254
83
128
126
125
125
125
248
112
126
125
127
129
127
126
128
254
84
128
126
125
125
126
248
112
126
125
127
129
127
126
128
254
84
128
126
125
125
126
248
112
126
125
127
129
127
126
128
254
84
128
126
125
125
126
248
112
126
125
127
129
127
126
128
254
84
128
126
125
125
126
248
112
126
125
127
129
127
126
128
254
84
128
126
125
125
126
248
113
126
126
127
129
127
126
128
254
87
128
127
126
126
126
248
114
127
127
127
127
127
127
128
254
92
129
129
127
126
127
248
121
129
129
128
126
128
128
129
254
86
130
132
130
128
128
248
123
130
131
128
124
128
129
129
254
94
131
135
132
129
129
248
126
131
132
128
123
129
130
129
254
88
133
137
135
131
130
248
114
132
133
129
122
129
131
130
254
94
134
139
136
132
131
248
116
132
134
129
122
129
132
130
254
82
135
140
137
133
131
248
116
133
134
129
121
129
132
130
254
85
135
141
138
133
132
248
116
133
134
129
121
129
132
130
254
83
135
140
138
133
131
248
115
132
134
129
122
129
131
130
254
80
134
139
137
133
131
248
113
131
133
129
123
129
131
129
254
91
134
137
135
132
131
248
125
130
131
129
124
128
130
129
254
82
133
134
132
131
130
248
121
129
129
128
126
128
129
128
254
88
131
131
130
130
128
248
115
127
127
127
128
127
127
128
254
93
129
128
127
128
127
248
127
126
125
127
129
127
126
127
254
82
127
125
124
126
126
248
124
125
124
126
130
127
125
127
254
91
126
123
123
124
125
248
124
125
124
126
130
127
125
127
254
91
126
123
123
124
125
248
124
125
124
126
130
127
125
127
254
91
126
123
123
124
125
248
124
125
124
126
130
127
125
127
254
92
126
123
123
125
125
248
124
125
124
126
130
127
125
127
254
92
126
123
123
125
125
248
124
125
124
126
130
127
125
127
254
93
126
123
124
125
125
248
124
125
124
126
130
127
125
127
254
94
126
124
124
125
125
248
126
125
125
126
130
127
126
127
254
94
126
124
124
125
125
248
127
125
125
127
130
127
126
127
254
94
126
124
124
125
125
248
112
126
125
127
130
127
126
127
254
95
126
124
124
125
126
248
127
126
125
127
129
127
126
127
254
95
126
124
124
125
126
248
127
126
125
127
129
127
126
127
254
95
126
124
124
125
126
248
127
126
125
127
129
127
126
127
254
95
126
124
124
125
126
248
127
126
125
127
129
127
126
127
254
95
126
124
124
125
126
248
127
126
125
127
129
127
126
127
254
80
126
124
125
125
126
248
127
126
125
127
129
127
126
127
254
81
126
125
125
125
126
248
127
126
125
127
129
127
126
127
254
82
126
125
125
126
126
248
127
126
125
127
129
127
126
127
254
82
126
125
125
126
126
248
127
126
125
127
129
127
126
127
254
82
126
125
125
126
126
248
112
126
126
127
129
127
126
127
254
82
126
125
125
126
126
248
112
126
126
127
129
127
126
127
254
82
126
125
125
126
126
248
112
126
126
127
129
127
126
127
254
82
126
125
125
126
126
248
112
126
126
127
129
127
126
127
254
82
126
125
125
126
126
248
112
126
126
127
129
127
126
127
254
83
127
125
125
126
126
248
113
127
126
127
128
127
127
127
254
87
127
126
126
127
127
248
118
128
128
128
127
127
128
128
254
93
128
127
128
128
128
248
121
129
130
128
125
128
129
128
254
83
129
129
129
129
129
248
122
130
130
128
125
128
129
128
254
84
129
129
129
130
129
248
122
130
130
128
125
128
129
128
254
84
129
129
129
130
129
248
121
129
129
128
126
128
129
128
254
83
129
129
129
129
129
248
113
127
127
127
127
127
127
127
254
91
128
127
127
128
127
248
112
126
126
127
129
127
126
127
254
85
127
126
126
126
126
248
112
126
126
127
129
127
126
127
254
82
126
125
125
126
126
248
112
126
126
127
129
127
126
127
254
82
126
125
125
126
126
248
112
126
126
127
129
127
126
127
254
82
126
125
125
126
126
248
112
126
126
127
129
127
126
127
254
83
126
125
126
126
126
248
112
126
126
127
129
127
126
127
254
84
126
126
126
126
126
248
112
126
126
127
129
127
126
127
254
85
127
126
126
126
126
248
112
126
126
127
129
127
126
127
254
85
127
126
126
126
126
248
112
126
126
127
129
127
126
127
254
85
127
126
126
126
126
248
127
126
125
127
129
127
126
127
254
80
126
125
125
125
125
252
107
31
127
33
48
248
115
126
126
128
129
126
127
129
254
93
129
130
128
126
126
255
61
31
31
248
118
131
135
131
121
127
133
132
254
86
136
145
143
137
135
248
126
140
148
136
111
129
142
128
254
93
133
149
155
151
147
250
122
0
249
72
79
248
124
139
146
134
112
130
140
115
254
94
112
126
143
146
145
248
121
130
131
128
124
128
130
110
254
94
100
107
123
130
132
248
117
125
124
126
130
127
125
120
254
81
113
115
119
123
125
248
124
125
124
126
130
127
125
127
254
92
126
124
123
124
125
248
127
126
125
126
130
127
125
128
254
82
128
126
124
125
125
248
127
126
125
126
130
127
125
128
254
83
128
126
125
125
125
248
127
126
125
126
129
127
126
128
254
83
128
126
125
125
125
248
127
126
125
126
129
127
126
128
254
83
128
126
125
125
125
248
127
126
125
126
129
127
126
128
254
83
128
126
125
125
125
248
127
126
125
126
129
127
126
128
254
83
128
126
125
125
125
248
112
126
125
127
129
127
126
128
254
84
128
126
125
125
126
248
112
126
125
127
129
127
126
128
254
84
128
126
125
125
126
248
112
126
125
127
129
127
126
128
254
84
128
126
125
125
126
248
112
126
125
127
129
127
126
128
254
84
128
126
125
125
126
248
112
126
125
127
129
127
126
128
254
84
128
126
125
125
126
248
112
126
125
127
129
127
126
128
254
84
128
126
125
125
126
248
113
126
126
127
129
127
126
128
254
87
128
127
126
126
126
248
115
127
127
127
128
127
127
128
254
92
129
129
127
126
127
248
120
129
129
127
126
128
128
129
254
85
130
132
130
127
128
248
123
130
130
128
125
128
129
129
254
93
131
134
132
129
129
248
126
131
132
128
123
129
130
129
254
87
133
137
134
131
130
248
114
132
133
129
122
129
131
130
254
94
134
139
136
132
131
248
116
132
134
129
122
129
132
130
254
82
135
140
137
133
131
248
116
133
134
129
121
129
132
130
254
84
135
140
138
133
132
248
116
133
134
129
121
129
132
130
254
83
135
140
138
133
131
248
115
132
134
129
122
129
131
130
254
81
135
139
137
133
131
248
114
132
133
129
122
129
131
130
254
91
134
137
135
132
131
248
125
130
131
129
124
128
130
129
254
83
133
134
133
131
130
248
121
129
129
128
126
128
129
128
254
89
131
131
130
130
129
248
115
127
127
127
128
127
127
128
254
93
129
128
127
128
127
248
127
126
125
127
129
127
126
127
254
82
127
125
124
126
126
248
124
125
124
126
130
127
125
127
254
92
126
123
123
125
125
248
124
125
124
126
130
127
125
127
254
91
126
123
123
124
125
248
124
125
124
126
130
127
125
127
254
91
126
123
123
124
125
248
124
125
124
126
130
127
125
127
254
92
126
123
123
125
125
248
124
125
124
126
130
127
125
127
254
92
126
123
123
125
125
248
124
125
124
126
130
127
125
127
254
93
126
123
124
125
125
248
124
125
124
126
130
127
125
127
254
93
126
123
124
125
125
248
126
125
125
126
130
127
126
127
254
94
126
124
124
125
125
248
127
125
125
127
130
127
126
127
254
94
126
124
124
125
125
248
112
126
125
127
130
127
126
127
254
95
126
124
124
125
126
248
127
126
125
127
129
127
126
127
254
95
126
124
124
125
126
248
127
126
125
127
129
127
126
127
254
95
126
124
124
125
126
248
127
126
125
127
129
127
126
127
254
95
126
124
124
125
126
248
127
126
125
127
129
127
126
127
254
80
126
124
125
125
126
248
127
126
125
127
129
127
126
127
254
80
126
124
125
125
126
248
127
126
125
127
129
127
126
127
254
81
126
125
125
125
126
248
127
126
125
127
129
127
126
127
254
82
126
125
125
126
126
248
127
126
125
127
129
127
126
127
254
82
126
125
125
126
126
248
127
126
125
127
129
127
126
127
254
82
126
125
125
126
126
248
112
126
126
127
129
127
126
127
254
82
126
125
125
126
126
248
112
126
126
127
129
127
126
127
254
82
126
125
125
126
126
248
112
126
126
127
129
127
126
127
254
82
126
125
125
126
126
248
112
126
126
127
129
127
126
127
254
82
126
125
125
126
126
248
112
126
126
127
129
127
126
127
254
83
127
125
125
126
126
248
113
127
126
127
128
127
127
127
254
87
127
126
126
127
127
248
118
128
128
128
127
127
128
128
254
92
128
127
128
128
127
248
121
129
130
128
125
128
129
128
254
83
129
129
129
129
129
248
122
130
130
128
125
128
129
128
254
84
129
129
129
130
129
248
122
130
130
128
125
128
129
128
254
84
129
129
129
130
129
248
121
129
129
128
126
128
129
128
254
83
129
129
129
129
129
248
113
127
127
127
127
127
127
127
254
91
128
127
127
128
127
248
112
126
126
127
129
127
126
127
254
85
127
126
126
126
126
248
127
126
125
127
129
127
126
127
254
82
126
125
125
126
126
248
112
126
126
127
129
127
126
127
254
82
126
125
125
126
126
248
112
126
126
127
129
127
126
127
254
82
126
125
125
126
126
248
112
126
126
127
129
127
126
127
254
83
126
125
126
126
126
248
112
126
126
127
129
127
126
127
254
84
126
126
126
126
126
248
112
126
126
127
129
127
126
127
254
84
126
126
126
126
126
248
112
126
126
127
129
127
126
127
254
85
127
126
126
126
126
248
112
126
126
127
129
127
126
127
254
85
127
126
126
126
126
248
127
126
125
127
129
127
126
127
254
81
126
125
125
125
126
248
114
125
126
128
129
126
127
129
254
88
128
129
127
125
125
248
118
131
134
131
122
127
133
132
254
81
135
144
142
136
134
248
125
139
148
136
111
129
142
128
254
94
134
150
155
151
146
249
72
79
248
112
139
147
135
112
130
141
116
254
85
114
128
145
147
145
248
123
131
132
129
123
128
130
110
254
82
100
108
124
131
133
248
116
125
124
126
130
127
125
119
254
93
111
114
118
123
125
248
124
125
124
126
130
127
125
127
254
91
125
124
123
124
125
248
126
126
124
126
130
127
125
128
254
82
128
126
124
125
125
248
127
126
125
126
130
127
125
128
254
82
128
126
124
125
125
248
127
126
125
126
129
127
126
128
254
83
128
126
125
125
125
252
107
31
127
33
48
248
127
126
125
126
129
127
126
128
254
83
128
126
125
125
125
255
61
31
31
248
127
126
125
126
129
127
126
128
254
83
128
126
125
125
125
248
127
126
125
126
129
127
126
128
254
83
128
126
125
125
125
250
122
0
248
127
126
125
126
129
127
126
128
254
83
128
126
125
125
125
248
112
126
125
127
129
127
126
128
254
84
128
126
125
125
126
248
112
126
125
127
129
127
126
128
254
84
128
126
125
125
126
248
112
126
125
127
129
127
126
128
254
84
128
126
125
125
126
248
112
126
125
127
129
127
126
128
254
84
128
126
125
125
126
248
112
126
125
127
129
127
126
128
254
84
128
126
125
125
126
248
113
126
126
127
129
127
126
128
254
87
128
127
126
126
126
248
115
127
127
127
128
127
127
128
254
91
128
129
127
126
127
248
119
128
129
127
126
128
128
129
254
83
130
131
129
127
128
248
123
130
130
128
125
128
129
129
254
93
131
134
132
129
129
248
126
131
132
128
123
129
130
129
254
85
132
137
134
130
130
248
114
132
133
129
122
129
131
130
254
94
134
139
136
132
131
248
115
132
134
129
122
129
131
130
254
82
135
140
137
133
131
248
116
133
134
129
121
129
132
130
254
85
135
141
138
133
132
248
116
133
134
129
121
129
132
130
254
83
135
140
138
133
131
248
115
132
134
129
122
129
131
130
254
81
135
139
137
133
131
248
114
132
133
129
122
129
131
130
254
91
134
137
135
132
131
248
126
130
132
129
124
128
130
129
254
84
133
135
133
131
130
248
122
129
130
128
126
128
129
128
254
90
131
132
130
130
129
248
114
127
127
127
127
127
127
128
254
93
129
128
127
128
127
248
127
126
125
127
129
127
126
127
254
82
127
125
124
126
126
248
124
125
124
126
130
127
125
127
254
92
126
123
123
125
125
248
124
125
124
126
130
127
125
127
254
91
126
123
123
124
125
248
124
125
124
126
130
127
125
127
254
91
126
123
123
124
125
248
124
125
124
126
130
127
125
127
254
91
126
123
123
124
125
248
124
125
124
126
130
127
125
127
254
92
126
123
123
125
125
248
124
125
124
126
130
127
125
127
254
93
126
123
124
125
125
248
124
125
124
126
130
127
125
127
254
93
126
123
124
125
125
248
125
125
125
126
130
127
125
127
254
94
126
124
124
125
125
248
112
126
125
127
130
127
126
127
254
94
126
124
124
125
125
248
127
126
125
127
129
127
126
127
254
95
126
124
124
125
126
248
127
126
125
127
129
127
126
127
254
95
126
124
124
125
126
248
127
126
125
127
129
127
126
127
254
95
126
124
124
125
126
248
127
126
125
127
129
127
126
127
254
95
126
124
124
125
126
248
127
126
125
127
129
127
126
127
254
95
126
124
124
125
126
248
127
126
125
127
129
127
126
127
254
80
126
124
125
125
126
248
127
126
125
127
129
127
126
127
254
81
126
125
125
125
126
248
127
126
125
127
129
127
126
127
254
82
126
125
125
126
126
248
127
126
125
127
129
127
126
127
254
82
126
125
125
126
126
248
127
126
125
127
129
127
126
127
254
82
126
125
125
126
126
248
112
126
126
127
129
127
126
127
254
82
126
125
125
126
126
248
112
126
126
127
129
127
126
127
254
82
126
125
125
126
126
248
112
126
126
127
129
127
126
127
254
82
126
125
125
126
126
248
112
126
126
127
129
127
126
127
254
83
127
125
125
126
126
248
112
126
126
127
129
127
126
127
254
83
127
125
125
126
126
248
112
126
126
127
128
127
127
127
254
87
127
126
126
127
127
248
118
128
128
128
127
127
128
128
254
91
128
127
127
128
127
248
121
129
130
128
125
128
129
128
254
83
129
129
129
129
129
248
122
130
130
128
125
128
129
128
254
84
129
129
129
130
129
248
122
130
130
128
125
128
129
128
254
84
129
129
129
130
129
248
121
129
129
128
126
128
129
128
254
83
129
129
129
129
129
248
116
127
128
128
127
127
128
127
254
93
128
128
127
128
128
248
127
126
126
127
128
127
126
127
254
85
127
126
126
126
126
248
127
126
125
127
129
127
126
127
254
82
126
125
125
126
126
248
112
126
126
127
129
127
126
127
254
82
126
125
125
126
126
248
112
126
126
127
129
127
126
127
254
82
126
125
125
126
126
248
112
126
126
127
129
127
126
127
254
82
126
125
125
126
126
248
112
126
126
127
129
127
126
127
254
83
126
125
126
126
126
248
112
126
126
127
129
127
126
127
254
84
126
126
126
126
126
248
112
126
126
127
129
127
126
127
254
85
127
126
126
126
126
248
112
126
126
127
129
127
126
127
254
85
127
126
126
126
126
248
127
126
125
127
129
127
126
127
254
81
126
125
125
125
126
248
127
125
125
127
129
126
126
129
254
87
128
128
127
125
125
248
116
130
133
131
123
127
132
132
254
91
135
142
140
135
133
248
126
139
147
136
112
129
142
129
254
94
135
151
155
150
145
249
72
79
248
114
140
148
135
111
130
141
117
254
93
116
131
146
148
146
248
124
131
133
129
122
128
131
110
254
84
100
108
125
132
133
248
116
126
124
126
130
127
125
118
254
91
110
113
118
123
125
248
124
125
124
126
130
127
125
127
254
91
125
124
123
124
125
248
126
126
124
126
130
127
125
128
254
81
128
125
124
125
125
248
127
126
125
126
130
127
125
128
254
82
128
126
124
125
125
248
127
126
125
126
129
127
126
128
254
83
128
126
125
125
125
248
127
126
125
126
129
127
126
128
254
83
128
126
125
125
125
248
127
126
125
126
129
127
126
128
254
83
128
126
125
125
125
248
127
126
125
126
129
127
126
128
254
83
128
126
125
125
125
248
112
126
125
127
129
127
126
128
254
83
128
126
125
125
125
248
112
126
125
127
129
127
126
128
254
84
128
126
125
125
126
248
112
126
125
127
129
127
126
128
254
84
128
126
125
125
126
248
112
126
125
127
129
127
126
128
254
84
128
126
125
125
126
248
112
126
125
127
129
127
126
128
254
84
128
126
125
125
126
248
112
126
125
127
129
127
126
128
254
84
128
126
125
125
126
248
113
126
126
127
129
127
126
128
254
87
128
127
126
126
126
248
115
127
127
127
128
127
127
128
254
91
128
129
127
126
127
252
107
31
127
33
48
255
61
31
31
248
118
128
128
127
126
128
128
129
254
82
129
131
129
127
128
248
123
130
130
128
125
128
129
129
254
93
131
134
132
129
129
248
125
131
132
128
123
128
130
129
254
85
132
137
134
130
130
250
122
0
248
114
132
133
129
122
129
131
130
254
93
134
138
136
132
131
248
115
132
134
129
122
129
131
130
254
82
135
140
137
133
131
248
116
133
134
129
121
129
132
130
254
84
135
140
138
133
132
248
116
133
134
129
121
129
132
130
254
83
135
140
138
133
131
248
115
132
134
129
122
129
131
130
254
81
135
139
137
133
131
248
114
132
133
129
122
129
131
130
254
92
134
137
136
132
131
248
126
130
132
129
124
128
130
129
254
84
133
135
133
131
130
248
121
129
130
128
125
128
129
128
254
90
131
132
130
130
129
248
114
127
127
127
127
127
127
128
254
94
129
128
128
128
127
248
127
126
125
127
129
127
126
127
254
83
127
125
125
126
126
248
124
125
124
126
130
127
125
127
254
92
126
123
123
125
125
248
124
125
124
126
130
127
125
127
254
91
126
123
123
124
125
248
124
125
124
126
130
127
125
127
254
91
126
123
123
124
125
248
124
125
124
126
130
127
125
127
254
91
126
123
123
124
125
248
124
125
124
126
130
127
125
127
254
92
126
123
123
125
125
248
124
125
124
126
130
127
125
127
254
93
126
123
124
125
125
248
124
125
124
126
130
127
125
127
254
93
126
123
124
125
125
248
125
125
125
126
130
127
125
127
254
94
126
124
124
125
125
248
126
125
125
126
130
127
126
127
254
94
126
124
124
125
125
248
112
126
125
127
130
127
126
127
254
95
126
124
124
125
126
248
127
126
125
127
129
127
126
127
254
95
126
124
124
125
126
248
127
126
125
127
129
127
126
127
254
95
126
124
124
125
126
248
127
126
125
127
129
127
126
127
254
95
126
124
124
125
126
248
127
126
125
127
129
127
126
127
254
95
126
124
124
125
126
248
127
126
125
127
129
127
126
127
254
80
126
124
125
125
126
248
127
126
125
127
129
127
126
127
254
81
126
125
125
125
126
248
127
126
125
127
129
127
126
127
254
82
126
125
125
126
126
248
127
126
125
127
129
127
126
127
254
82
126
125
125
126
126
248
127
126
125
127
129
127
126
127
254
82
126
125
125
126
126
248
112
126
126
127
129
127
126
127
254
82
126
125
125
126
126
248
112
126
126
127
129
127
126
127
254
82
126
125
125
126
126
248
112
126
126
127
129
127
126
127
254
83
127
125
125
126
126
248
112
126
126
127
129
127
126
127
254
83
127
125
125
126
126
248
112
126
126
127
129
127
126
127
254
83
127
125
125
126
126
248
112
126
126
127
128
127
127
127
254
85
127
126
126
126
126
248
115
127
128
127
127
127
127
128
254
91
128
127
127
128
127
248
120
129
129
128
125
128
129
128
254
83
129
129
129
129
129
248
122
130
130
128
125
128
129
128
254
84
129
129
129
130
129
248
122
130
130
128
125
128
129
128
254
84
129
129
129
130
129
248
121
129
130
128
125
128
129
128
254
83
129
129
129
129
129
248
117
128
128
128
127
127
128
127
254
94
128
128
128
128
128
248
112
126
126
127
128
127
127
127
254
86
127
126
126
127
126
248
112
126
126
127
129
127
126
127
254
82
126
125
125
126
126
248
112
126
126
127
129
127
126
127
254
82
126
125
125
126
126
248
112
126
126
127
129
127
126
127
254
82
126
125
125
126
126
248
112
126
126
127
129
127
126
127
254
82
126
125
125
126
126
248
112
126
126
127
129
127
126
127
254
83
126
125
126
126
126
248
112
126
126
127
129
127
126
127
254
85
127
126
126
126
126
248
112
126
126
127
129
127
126
127
254
85
127
126
126
126
126
248
112
126
126
127
129
127
126
127
254
85
127
126
126
126
126
248
127
126
125
127
129
127
126
127
254
81
126
125
125
125
126
248
127
125
125
127
129
126
126
129
254
86
128
128
126
125
125
248
114
129
133
130
124
127
131
132
254
85
134
141
139
133
132
248
125
138
147
136
112
129
141
130
254
94
135
151
155
150
145
249
72
79
248
116
140
148
135
111
130
142
118
254
85
118
133
148
149
147
248
112
132
134
129
122
129
132
110
254
88
100
109
126
133
134
248
115
126
124
126
130
127
125
117
254
88
108
112
118
123
125
248
124
125
124
126
130
127
125
127
254
88
124
123
122
124
125
248
126
126
124
126
130
127
125
128
254
81
128
125
124
125
125
248
127
126
125
126
130
127
125
128
254
82
128
126
124
125
125
248
127
126
125
126
129
127
126
128
254
83
128
126
125
125
125
248
127
126
125
126
129
127
126
128
254
83
128
126
125
125
125
248
127
126
125
126
129
127
126
128
254
83
128
126
125
125
125
248
127
126
125
126
129
127
126
128
254
83
128
126
125
125
125
248
127
126
125
126
129
127
126
128
254
83
128
126
125
125
125
248
112
126
125
127
129
127
126
128
254
84
128
126
125
125
126
248
112
126
125
127
129
127
126
128
254
84
128
126
125
125
126
248
112
126
125
127
129
127
126
128
254
84
128
126
125
125
126
248
112
126
125
127
129
127
126
128
254
84
128
126
125
125
126
248
112
126
125
127
129
127
126
128
254
84
128
126
125
125
126
248
113
126
126
127
129
127
126
128
254
87
128
127
126
126
126
248
115
127
127
127
128
127
127
128
254
89
128
128
127
126
126
248
118
128
128
127
126
128
128
129
254
82
129
131
129
127
128
248
123
130
130
128
125
128
129
129
254
92
131
134
131
129
129
248
126
131
132
128
124
128
130
129
254
84
132
136
134
130
130
248
113
131
133
129
122
129
131
130
254
93
134
138
136
132
131
248
116
132
134
129
122
129
132
130
254
82
135
140
137
133
131
248
115
132
134
129
121
129
132
130
254
84
135
140
138
133
132
248
116
133
134
129
121
129
132
130
254
85
135
141
138
133
132
248
115
132
134
129
122
129
131
130
254
82
135
140
137
133
131
248
114
132
133
129
122
129
131
130
254
94
134
138
136
133
131
248
126
131
132
129
123
128
130
129
254
85
133
135
133
132
130
252
107
31
127
33
48
248
121
129
130
128
125
128
129
128
254
92
132
132
131
130
129
255
61
31
31
248
116
127
128
127
127
127
128
128
254
81
130
129
128
128
128
248
112
126
126
127
129
127
126
127
254
83
127
125
125
126
126
250
122
0
248
124
125
124
126
130
127
125
127
254
92
126
123
123
125
125
248
124
125
124
126
130
127
125
127
254
91
126
123
123
124
125
248
124
125
124
126
130
127
125
127
254
91
126
123
123
124
125
248
124
125
124
126
130
127
125
127
254
91
126
123
123
124
125
248
124
125
124
126
130
127
125
127
254
92
126
123
123
125
125
248
124
125
124
126
130
127
125
127
254
93
126
123
124
125
125
248
124
125
124
126
130
127
125
127
254
93
126
123
124
125
125
248
126
125
125
126
130
127
126
127
254
94
126
124
124
125
125
248
127
125
125
127
130
127
126
127
254
94
126
124
124
125
125
248
112
126
125
127
130
127
126
127
254
95
126
124
124
125
126
248
127
126
125
127
129
127
126
127
254
95
126
124
124
125
126
248
127
126
125
127
129
127
126
127
254
95
126
124
124
125
126
248
127
126
125
127
129
127
126
127
254
95
126
124
124
125
126
248
127
126
125
127
129
127
126
127
254
95
126
124
124
125
126
248
127
126
125
127
129
127
126
127
254
80
126
124
125
125
126
248
127
126
125
127
129
127
126
127
254
81
126
125
125
125
126
248
127
126
125
127
129
127
126
127
254
82
126
125
125
126
126
248
127
126
125
127
129
127
126
127
254
82
126
125
125
126
126
248
127
126
125
127
129
127
126
127
254
82
126
125
125
126
126
248
112
126
126
127
129
127
126
127
254
82
126
125
125
126
126
248
112
126
126
127
129
127
126
127
254
82
126
125
125
126
126
248
112
126
126
127
129
127
126
127
254
82
126
125
125
126
126
248
112
126
126
127
129
127
126
127
254
82
126
125
125
126
126
248
112
126
126
127
129
127
126
127
254
83
127
125
125
126
126
248
112
126
126
127
128
127
127
127
254
85
127
126
126
126
126
248
114
127
127
127
127
127
127
128
254
91
128
127
127
128
127
248
121
129
129
128
126
128
129
128
254
83
129
129
129
129
129
248
122
130
130
128
125
128
129
128
254
84
129
129
129
130
129
248
122
130
130
128
125
128
129
128
254
84
129
129
129
130
129
248
121
129
130
128
125
128
129
128
254
83
129
129
129
129
129
248
118
128
128
128
127
127
128
128
254
94
128
128
128
128
128
248
112
126
126
127
128
127
127
127
254
87
127
126
126
127
127
248
112
126
126
127
129
127
126
127
254
82
126
125
125
126
126
248
112
126
126
127
129
127
126
127
254
82
126
125
125
126
126
248
112
126
126
127
129
127
126
127
254
82
126
125
125
126
126
248
112
126
126
127
129
127
126
127
254
82
126
125
125
126
126
248
112
126
126
127
129
127
126
127
254
83
126
125
126
126
126
248
112
126
126
127
129
127
126
127
254
84
126
126
126
126
126
248
112
126
126
127
129
127
126
127
254
85
127
126
126
126
126
248
112
126
126
127
129
127
126
127
254
85
127
126
126
126
126
248
112
126
126
127
129
127
126
127
254
82
126
125
125
126
126
248
112
125
125
127
130
126
126
129
254
85
128
127
126
125
125
248
113
129
132
130
124
127
131
132
254
81
133
140
138
133
131
248
124
138
146
135
113
129
141
130
254
92
136
151
154
149
144
248
118
140
149
136
110
130
142
119
254
91
120
135
149
150
147
249
72
79
248
115
133
135
130
121
129
133
110
254
93
101
110
127
134
135
248
114
126
125
126
129
127
125
116
254
87
107
111
118
123
126
248
122
125
123
126
130
127
125
126
254
86
123
123
122
124
124
248
126
126
124
126
130
127
125
128
254
81
128
125
124
125
125
248
127
126
125
126
130
127
125
128
254
83
128
126
125
125
125
248
127
126
125
126
129
127
126
128
254
83
128
126
125
125
125
248
127
126
125
126
129
127
126
128
254
83
128
126
125
125
125
248
127
126
125
126
129
127
126
128
254
83
128
126
125
125
125
248
127
126
125
126
129
127
126
128
254
83
128
126
125
125
125
248
127
126
125
126
129
127
126
128
254
83
128
126
125
125
125
248
112
126
125
127
129
127
126
128
254
84
128
126
125
125
126
248
112
126
125
127
129
127
126
128
254
84
128
126
125
125
126
248
112
126
125
127
129
127
126
128
254
84
128
126
125
125
126
248
112
126
125
127
129
127
126
128
254
84
128
126
125
125
126
248
112
126
125
127
129
127
126
128
254
85
128
126
125
126
126
248
113
126
126
127
129
127
126
128
254
87
128
127
126
126
126
248
115
127
127
127
128
127
127
128
254
89
128
128
127
126
126
248
119
128
128
127
127
128
128
129
254
81
129
131
129
127
127
248
122
129
130
128
125
128
129
129
254
92
131
134
131
129
129
248
126
131
132
128
124
128
130
129
254
84
132
136
134
130
130
248
114
131
133
129
123
129
131
130
254
93
134
138
136
132
131
248
115
132
134
129
122
129
131
130
254
82
135
140
137
133
131
248
115
132
134
129
121
129
132
130
254
84
135
140
138
133
132
248
116
133
134
129
121
129
132
130
254
85
135
141
138
133
132
248
115
132
134
129
122
129
131
130
254
82
135
140
137
133
131
248
114
132
133
129
122
129
131
130
254
94
134
138
136
133
131
248
126
131
132
129
123
128
130
129
254
85
133
135
133
132
130
248
122
129
130
128
125
128
129
129
254
92
132
132
131
130
129
248
118
128
128
128
127
127
128
128
254
81
130
129
128
128
128
248
112
126
126
127
129
127
126
127
254
85
128
126
125
126
126
248
125
125
124
127
130
127
125
127
254
92
126
123
123
125
125
248
124
125
124
126
130
127
125
127
254
91
126
123
123
124
125
248
124
125
124
126
130
127
125
127
254
91
126
123
123
124
125
248
124
125
124
126
130
127
125
127
254
91
126
123
123
124
125
248
124
125
124
126
130
127
125
127
254
92
126
123
123
125
125
248
124
125
124
126
130
127
125
127
254
93
126
123
124
125
125
248
124
125
124
126
130
127
125
127
254
93
126
123
124
125
125
252
107
31
127
33
48
248
125
125
125
126
130
127
125
127
254
94
126
124
124
125
125
255
61
31
31
248
127
125
125
127
130
127
126
127
254
94
126
124
124
125
125
248
112
126
125
127
130
127
126
127
254
95
126
124
124
125
126
250
122
0
248
112
126
125
127
130
127
126
127
254
95
126
124
124
125
126
248
127
126
125
127
129
127
126
127
254
95
126
124
124
125
126
248
127
126
125
127
129
127
126
127
254
95
126
124
124
125
126
248
127
126
125
127
129
127
126
127
254
95
126
124
124
125
126
248
127
126
125
127
129
127
126
127
254
80
126
124
125
125
126
248
127
126
125
127
129
127
126
127
254
81
126
125
125
125
126
248
127
126
125
127
129
127
126
127
254
82
126
125
125
126
126
248
127
126
125
127
129
127
126
127
254
82
126
125
125
126
126
248
127
126
125
127
129
127
126
127
254
82
126
125
125
126
126
248
127
126
125
127
129
127
126
127
254
82
126
125
125
126
126
248
112
126
126
127
129
127
126
127
254
82
126
125
125
126
126
248
112
126
126
127
129
127
126
127
254
82
126
125
125
126
126
248
112
126
126
127
129
127
126
127
254
83
127
125
125
126
126
248
112
126
126
127
129
127
126
127
254
83
127
125
125
126
126
248
127
126
126
127
128
127
126
127
254
85
127
126
126
126
126
248
113
127
127
127
127
127
127
127
254
90
127
127
127
128
127
248
121
129
129
128
126
128
129
128
254
82
129
129
129
129
128
248
122
130
130
128
125
128
129
128
254
84
129
129
129
130
129
248
122
130
130
128
125
128
129
128
254
84
129
129
129
130
129
248
121
129
130
128
125
128
129
128
254
83
129
129
129
129
129
248
118
128
128
128
127
127
128
128
254
94
128
128
128
128
128
248
113
127
126
127
128
127
127
127
254
87
127
126
126
127
127
248
112
126
126
127
129
127
126
127
254
82
126
125
125
126
126
248
112
126
126
127
129
127
126
127
254
82
126
125
125
126
126
248
112
126
126
127
129
127
126
127
254
82
126
125
125
126
126
248
112
126
126
127
129
127
126
127
254
82
126
125
125
126
126
248
112
126
126
127
129
127
126
127
254
83
126
125
126
126
126
248
112
126
126
127
129
127
126
127
254
84
126
126
126
126
126
248
112
126
126
127
129
127
126
127
254
85
127
126
126
126
126
248
112
126
126
127
129
127
126
127
254
85
127
126
126
126
126
248
112
126
126
127
129
127
126
127
254
82
126
125
125
126
126
248
112
125
125
127
130
126
126
129
254
83
127
127
125
125
125
248
126
128
131
130
125
127
130
131
254
92
133
139
136
132
130
248
122
137
145
135
114
129
140
130
254
90
136
151
154
148
143
