254
248
18
122
248
19
123
248
19
123
248
19
123
248
19
123
248
21
125
248
27
131
248
31
135
248
17
137
248
31
135
248
27
131
248
22
126
248
19
123
248
18
122
248
19
123
248
19
123
248
19
123
248
19
123
248
19
123
248
19
123
248
19
123
248
31
119
248
20
124
248
17
153
248
29
181
249
72
79
248
30
166
248
27
131
248
30
118
248
31
119
248
16
120
248
17
121
248
17
121
248
17
121
248
17
121
248
18
122
248
18
122
248
18
122
248
18
122
248
18
122
248
19
123
248
19
123
248
20
124
248
24
128
248
29
133
248
18
138
248
22
142
248
25
145
248
27
147
248
28
148
248
28
148
248
27
147
248
23
143
248
17
137
248
27
131
248
21
125
248
16
120
248
30
118
248
30
118
248
31
119
248
31
119
248
31
119
248
31
119
248
16
120
248
16
120
248
16
120
248
16
120
248
17
121
248
17
121
248
17
121
248
17
121
248
17
121
248
18
122
248
18
122
248
18
122
248
18
122
248
18
122
248
19
123
248
19
123
248
19
123
252
117
31
1
41
48
248
19
123
255
30
31
0
248
21
125
248
26
130
250
122
0
248
31
135
248
17
137
248
16
136
248
27
131
248
22
126
248
19
123
248
18
122
248
18
122
248
19
123
248
19
123
248
19
123
248
19
123
248
19
123
248
19
123
248
16
120
248
18
122
248
30
150
248
28
180
249
72
79
248
16
168
248
29
133
248
30
118
248
31
119
248
16
120
248
17
121
248
17
121
248
17
121
248
17
121
248
17
121
248
18
122
248
18
122
248
18
122
248
18
122
248
19
123
248
19
123
248
20
124
248
24
128
248
29
133
248
18
138
248
22
142
248
25
145
248
27
147
248
28
148
248
28
148
248
27
147
248
23
143
248
18
138
248
28
132
248
21
125
248
16
120
248
30
118
248
30
118
248
30
118
248
31
119
248
31
119
248
31
119
248
31
119
248
16
120
248
16
120
248
16
120
248
16
120
248
17
121
248
17
121
248
17
121
248
17
121
248
18
122
248
18
122
248
18
122
248
18
122
248
18
122
248
19
123
248
19
123
248
19
123
248
19
123
248
21
125
248
26
130
248
31
135
248
17
137
248
16
136
248
28
132
248
22
126
248
19
123
248
18
122
252
117
31
1
41
48
248
19
123
255
30
31
0
248
19
123
248
19
123
250
122
0
248
19
123
248
19
123
248
19
123
248
19
123
248
16
120
248
17
121
248
27
147
248
27
179
249
72
79
248
19
171
248
31
135
248
30
118
248
31
119
248
16
120
248
17
121
248
17
121
248
17
121
248
17
121
248
18
122
248
18
122
248
18
122
248
18
122
248
18
122
248
18
122
248
19
123
248
20
124
248
23
127
248
29
133
248
17
137
248
22
142
248
25
145
248
27
147
248
28
148
248
28
148
248
27
147
248
24
144
248
18
138
248
28
132
248
22
126
248
17
121
248
30
118
248
30
118
248
30
118
248
31
119
248
31
119
248
31
119
248
31
119
248
16
120
248
16
120
248
16
120
248
16
120
248
17
121
248
17
121
248
17
121
248
17
121
248
18
122
248
18
122
248
18
122
248
18
122
248
18
122
248
19
123
248
19
123
248
19
123
248
19
123
248
21
125
248
25
129
248
30
134
248
17
137
248
16
136
248
28
132
248
23
127
248
19
123
248
18
122
248
19
123
248
19
123
248
19
123
248
19
123
248
19
123
248
19
123
248
19
123
248
16
120
248
17
121
248
24
144
248
26
178
252
117
31
1
41
48
255
30
31
0
249
72
79
248
21
173
248
18
138
248
31
119
250
122
0
248
31
119
248
16
120
248
16
120
248
17
121
248
17
121
248
17
121
248
18
122
248
18
122
248
18
122
248
18
122
248
18
122
248
18
122
248
19
123
248
20
124
248
23
127
248
28
132
248
17
137
248
21
141
248
25
145
248
27
147
248
28
148
248
28
148
248
27
147
248
24
144
248
19
139
248
28
132
248
22
126
248
17
121
248
30
118
248
30
118
248
30
118
248
30
118
248
31
119
248
31
119
248
31
119
248
16
120
248
16
120
248
16
120
248
17
121
248
17
121
248
17
121
248
17
121
248
18
122
248
18
122
248
18
122
248
18
122
248
18
122
248
18
122
248
18
122
248
19
123
248
19
123
248
19
123
248
20
124
248
25
129
248
30
134
248
17
137
248
16
136
248
28
132
248
23
127
248
19
123
248
18
122
248
19
123
248
19
123
248
19
123
248
19
123
248
19
123
248
19
123
248
19
123
248
17
121
248
16
120
248
21
141
248
24
176
249
72
79
248
22
174
248
20
140
248
31
119
248
30
118
248
16
120
248
17
121
248
17
121
248
17
121
248
17
121
248
17
121
252
117
31
1
41
48
248
17
121
255
30
31
0
248
18
122
248
18
122
250
122
0
248
18
122
248
19
123
248
19
123
248
19
123
248
23
127
248
28
132
248
17
137
248
21
141
248
24
144
248
27
147
248
28
148
248
28
148
248
27
147
248
24
144
248
19
139
248
29
133
248
23
127
248
17
121
248
30
118
248
30
118
248
30
118
248
31
119
248
31
119
248
31
119
248
31
119
248
16
120
248
16
120
248
16
120
248
16
120
248
17
121
248
17
121
248
17
121
248
18
122
248
18
122
248
18
122
248
18
122
248
18
122
248
18
122
248
19
123
248
19
123
248
19
123
248
19
123
248
20
124
248
25
129
248
30
134
248
17
137
248
16
136
248
29
133
248
24
128
248
19
123
248
18
122
248
19
123
248
19
123
248
19
123
248
19
123
248
19
123
248
19
123
248
19
123
248
17
121
248
16
120
248
19
139
248
23
175
249
72
79
248
25
177
248
22
142
248
16
120
248
30
118
248
16
120
248
17
121
248
17
121
248
17
121
248
17
121
248
17
121
248
18
122
248
18
122
248
18
122
248
18
122
248
18
122
248
18
122
248
19
123
248
22
126
248
28
132
248
16
136
252
117
31
1
41
48
248
21
141
255
30
31
0
248
24
144
248
26
146
250
122
0
248
28
148
248
28
148
248
27
147
248
24
144
248
19
139
248
29
133
248
23
127
248
17
121
248
30
118
248
30
118
248
30
118
248
30
118
248
31
119
248
31
119
248
31
119
248
16
120
248
16
120
248
16
120
248
16
120
248
17
121
248
17
121
248
17
121
248
17
121
248
18
122
248
18
122
248
18
122
248
18
122
248
19
123
248
19
123
248
19
123
248
19
123
248
19
123
248
20
124
248
24
128
248
30
134
248
17
137
248
17
137
248
29
133
248
24
128
248
20
124
248
18
122
248
19
123
248
19
123
248
19
123
248
19
123
248
19
123
248
19
123
248
19
123
248
18
122
248
31
119
248
17
137
248
21
173
249
72
79
248
26
178
248
25
145
248
17
121
248
30
118
248
16
120
248
17
121
248
17
121
248
17
121
248
17
121
248
18
122
248
18
122
248
18
122
248
18
122
248
18
122
248
18
122
248
19
123
248
19
123
248
22
126
248
27
131
248
16
136
248
20
140
248
24
144
248
26
146
248
28
148
248
29
149
248
27
147
248
25
145
248
20
140
248
30
134
248
24
128
248
18
122
252
117
31
1
41
48
255
30
31
0
248
30
118
248
30
118
248
30
118
250
122
0
248
30
118
248
31
119
248
31
119
248
31
119
248
16
120
248
16
120
248
16
120
248
16
120
248
17
121
248
17
121
248
17
121
248
17
121
248
17
121
248
18
122
248
18
122
248
18
122
248
18
122
248
19
123
248
19
123
248
19
123
248
19
123
248
20
124
248
24
128
248
29
133
248
16
136
248
17
137
248
29
133
248
24
128
248
20
124
248
18
122
248
19
123
248
19
123
248
19
123
248
19
123
248
19
123
248
19
123
248
19
123
248
18
122
248
31
119
248
30
134
248
18
170
248
27
179
249
72
79
248
28
148
248
18
122
248
30
118
248
16
120
248
16
120
248
17
121
248
17
121
248
17
121
248
17
121
248
18
122
248
18
122
248
18
122
248
18
122
248
18
122
248
19
123
248
19
123
248
22
126
248
27
131
248
16
136
248
20
140
248
24
144
248
26
146
248
28
148
248
28
148
248
27
147
248
25
145
248
20
140
248
31
135
248
24
128
248
18
122
248
31
119
248
30
118
248
30
118
248
30
118
248
31
119
248
31
119
248
31
119
248
16
120
248
16
120
248
16
120
252
117
31
1
41
48
248
16
120
255
30
31
0
248
17
121
248
17
121
250
122
0
248
17
121
248
17
121
248
18
122
248
18
122
248
18
122
248
18
122
248
18
122
248
18
122
248
19
123
248
19
123
248
19
123
248
20
124
248
23
127
248
29
133
248
16
136
248
17
137
248
30
134
248
25
129
248
20
124
248
18
122
248
18
122
248
19
123
248
19
123
248
19
123
248
19
123
248
19
123
248
19
123
248
18
122
248
31
119
248
28
132
248
16
168
248
28
180
249
72
79
248
31
151
248
19
123
248
29
117
248
16
120
248
16
120
248
17
121
248
17
121
248
17
121
248
17
121
248
18
122
248
18
122
248
18
122
248
18
122
248
18
122
248
19
123
248
19
123
248
21
125
248
26
130
248
31
135
248
20
140
248
24
144
248
26
146
248
28
148
248
28
148
248
28
148
248
25
145
248
21
141
248
31
135
248
25
129
248
19
123
248
31
119
248
30
118
248
30
118
248
31
119
248
31
119
248
31
119
248
31
119
248
16
120
248
16
120
248
16
120
248
16
120
248
17
121
248
17
121
248
17
121
248
17
121
248
18
122
248
18
122
248
18
122
248
18
122
248
18
122
252
117
31
1
41
48
248
18
122
255
30
31
0
248
19
123
248
19
123
250
122
0
248
19
123
248
20
124
248
23
127
248
28
132
248
16
136
248
17
137
248
30
134
248
25
129
248
20
124
248
18
122
248
18
122
248
19
123
248
19
123
248
19
123
248
19
123
248
19
123
248
19
123
248
18
122
248
31
119
248
27
131
248
30
166
248
28
180
249
72
79
248
18
154
248
20
124
248
29
117
248
16
120
248
17
121
248
17
121
248
17
121
248
17
121
248
17
121
248
18
122
248
18
122
248
18
122
248
18
122
248
18
122
248
18
122
248
19
123
248
21
125
248
26
130
248
31
135
248
20
140
248
23
143
248
26
146
248
28
148
248
29
149
248
28
148
248
26
146
248
21
141
248
16
136
248
25
129
248
19
123
248
31
119
248
30
118
248
30
118
248
30
118
248
31
119
248
31
119
248
31
119
248
16
120
248
16
120
248
16
120
248
16
120
248
17
121
248
17
121
248
17
121
248
17
121
248
17
121
248
18
122
248
18
122
248
18
122
248
18
122
248
18
122
248
19
123
248
19
123
248
19
123
248
19
123
248
23
127
248
28
132
248
16
136
248
17
137
248
30
134
248
25
129
252
117
31
1
41
48
255
30
31
0
248
21
125
248
18
122
248
18
122
250
122
0
248
19
123
248
19
123
248
19
123
248
19
123
248
19
123
248
19
123
248
18
122
248
31
119
248
25
129
248
27
163
248
29
181
249
72
79
248
21
157
248
22
126
248
29
117
248
16
120
248
16
120
248
17
121
248
17
121
248
17
121
248
17
121
248
17
121
248
18
122
248
18
122
248
18
122
248
18
122
248
18
122
248
19
123
248
21
125
248
25
129
248
31
135
248
19
139
248
23
143
248
26
146
248
27
147
248
29
149
248
28
148
248
26
146
248
21
141
248
16
136
248
25
129
248
19
123
248
31
119
248
30
118
248
30
118
248
30
118
248
31
119
248
31
119
248
31
119
248
31
119
248
16
120
248
16
120
248
16
120
248
17
121
248
17
121
248
17
121
248
17
121
248
17
121
248
18
122
248
18
122
248
18
122
248
18
122
248
18
122
248
19
123
248
19
123
248
19
123
248
19
123
248
22
126
248
27
131
248
16
136
248
17
137
248
31
135
248
26
130
248
21
125
248
18
122
248
18
122
248
19
123
248
19
123
248
19
123
248
19
123
248
19
123
248
19
123
248
19
123
252
117
31
1
41
48
248
31
119
255
30
31
0
248
23
127
248
24
160
250
122
0
248
29
181
249
72
79
248
23
159
248
23
127
248
29
117
248
16
120
248
16
120
248
17
121
248
17
121
248
17
121
248
17
121
248
18
122
248
18
122
248
18
122
248
18
122
248
18
122
248
19
123
248
19
123
248
21
125
248
25
129
248
30
134
248
19
139
248
23
143
248
25
145
248
27
147
248
29
149
248
28
148
248
26
146
248
22
142
248
16
136
248
26
130
248
20
124
248
31
119
248
30
118
248
30
118
248
30
118
248
31
119
248
31
119
248
31
119
248
16
120
248
16
120
248
16
120
248
16
120
248
17
121
248
17
121
248
17
121
248
17
121
248
17
121
248
18
122
248
18
122
248
18
122
248
18
122
248
18
122
248
19
123
248
19
123
248
19
123
248
19
123
248
22
126
248
27
131
248
16
136
248
17
137
248
31
135
248
26
130
248
21
125
248
19
123
248
18
122
248
19
123
248
19
123
248
19
123
248
19
123
248
19
123
248
19
123
248
19
123
248
31
119
248
22
126
248
22
158
248
29
181
249
72
79
248
26
162
248
25
129
248
29
117
248
16
120
248
17
121
248
17
121
252
117
31
1
41
48
248
17
121
255
30
31
0
248
17
121
248
17
121
250
122
0
248
17
121
248
18
122
248
18
122
248
18
122
248
18
122
248
18
122
248
19
123
248
20
124
248
25
129
248
30
134
248
19
139
248
23
143
248
25
145
248
27
147
248
28
148
248
28
148
248
26
146
248
22
142
248
17
137
248
27
131
248
20
124
248
16
120
248
30
118
248
30
118
248
30
118
248
31
119
248
31
119
248
31
119
248
16
120
248
16
120
248
16
120
248
16
120
248
17
121
248
17
121
248
17
121
248
17
121
248
17
121
248
18
122
248
18
122
248
18
122
248
18
122
248
18
122
248
19
123
248
19
123
248
19
123
248
19
123
248
21
125
248
27
131
248
31
135
248
17
137
248
31
135
248
26
130
248
21
125
248
19
123
248
18
122
248
19
123
248
19
123
248
19
123
248
19
123
248
19
123
248
19
123
248
19
123
248
31
119
248
20
124
248
19
155
248
29
181
249
72
79
248
29
165
248
26
130
248
29
117
248
31
119
248
17
121
248
17
121
248
17
121
248
17
121
248
17
121
248
17
121
248
18
122
248
18
122
248
18
122
248
18
122
248
18
122
248
19
123
248
20
124
252
117
31
1
41
48
255
30
31
0
248
24
128
248
29
133
248
18
138
250
122
0
248
22
142
248
25
145
248
27
147
248
28
148
248
28
148
248
26
146
248
22
142
248
17
137
248
27
131
248
21
125
248
16
120
248
30
118
248
30
118
248
30
118
248
31
119
248
31
119
248
31
119
248
16
120
248
16
120
248
16
120
248
16
120
248
17
121
248
17
121
248
17
121
248
17
121
248
17
121
248
18
122
248
18
122
248
18
122
248
18
122
248
18
122
248
19
123
248
19
123
248
19
123
248
19
123
248
21
125
248
26
130
248
31
135
248
17
137
248
16
136
248
27
131
248
22
126
248
19
123
248
18
122
248
19
123
248
19
123
248
19
123
248
19
123
248
19
123
248
19
123
248
19
123
248
16
120
248
19
123
248
16
152
248
28
180
249
72
79
248
31
167
248
28
132
248
30
118
248
31
119
248
16
120
248
17
121
248
17
121
248
17
121
248
17
121
248
17
121
248
18
122
248
18
122
248
18
122
248
18
122
248
19
123
248
19
123
248
20
124
248
24
128
248
29
133
248
18
138
248
22
142
248
25
145
248
27
147
248
28
148
248
28
148
248
27
147
248
23
143
252
117
31
1
41
48
248
18
138
255
30
31
0
248
27
131
248
21
125
250
122
0
248
16
120
248
30
118
248
30
118
248
30
118
248
31
119
248
31
119
248
31
119
248
16
120
248
16
120
248
16
120
248
16
120
248
17
121
248
17
121
248
17
121
248
17
121
248
17
121
248
17
121
248
18
122
248
18
122
248
18
122
248
18
122
248
19
123
248
19
123
248
19
123
248
19
123
248
21
125
248
26
130
248
31
135
248
17
137
248
16
136
248
27
131
248
22
126
248
19
123
248
18
122
248
19
123
248
19
123
248
19
123
248
19
123
248
19
123
248
19
123
248
19
123
248
16
120
248
18
122
248
29
149
248
27
179
249
72
79
248
17
169
248
30
134
248
30
118
248
31
119
248
16
120
248
17
121
248
17
121
248
17
121
248
17
121
248
18
122
248
18
122
248
18
122
248
18
122
248
18
122
248
19
123
248
19
123
248
20
124
248
24
128
248
29
133
248
18
138
248
22
142
248
25
145
248
27
147
248
28
148
248
28
148
248
27
147
248
23
143
248
18
138
248
28
132
248
22
126
248
16
120
248
30
118
248
30
118
248
30
118
248
31
119
248
31
119
248
31
119
252
117
31
1
41
48
248
31
119
255
30
31
0
248
16
120
248
16
120
250
122
0
248
16
120
248
16
120
248
17
121
248
17
121
248
17
121
248
17
121
248
18
122
248
18
122
248
18
122
248
18
122
248
18
122
248
19
123
248
19
123
248
19
123
248
19
123
248
21
125
248
26
130
248
31
135
248
17
137
248
16
136
248
28
132
248
23
127
248
19
123
248
18
122
248
19
123
248
19
123
248
19
123
248
19
123
248
19
123
248
19
123
248
19
123
248
16
120

Traceback (most recent call last):
  File "<stdin>", line 25, in <module>
Exception: IDE interrupt
MPY: soft reboot
MicroPython: v1.18-omv-r13 OpenMV: v4.3.3 HAL: v1.3.0 BOARD: Arduino Nano RP2040 Connect-RP2040
Type "help()" for more information.
>>> 