MEDLAB ECG Data : C:\Users\jidan\OneDrive\Documents\TA ITERA\ecg\log1-10-23.log
File created: 1/10/2023 1:25:54 PM

TIME    	I	II	III	VR	VL	VF	C1	C2	C3	C4	C5	C6	RESP

1:25:05 PM	35	183	206	181	34	195	214	0	0	0	0	0	0	
1:25:05 PM	35	183	206	181	34	195	214	202	180	173	183	187	0	
1:25:05 PM	35	183	206	181	34	195	214	202	180	173	183	187	0	
1:25:05 PM	35	183	206	181	34	195	214	202	179	171	180	184	0	
1:25:05 PM	33	181	206	183	33	195	215	209	193	182	185	187	0	
1:25:05 PM	35	185	208	180	33	198	220	222	224	217	213	209	0	
1:25:05 PM	49	208	217	161	35	214	222	210	223	232	234	229	0	
1:25:05 PM	64	230	223	142	39	227	209	165	170	200	217	220	0	
1:25:05 PM	59	219	218	150	39	219	183	149	143	164	187	195	0	
1:25:05 PM	42	191	206	173	36	199	179	178	163	162	178	184	0	
1:25:05 PM	34	179	202	182	34	192	200	199	177	170	180	185	0	
1:25:05 PM	35	180	203	181	34	193	211	202	178	171	181	185	0	
1:25:05 PM	35	181	204	181	34	193	212	202	178	171	181	185	0	
1:25:05 PM	35	181	204	181	34	193	212	202	178	171	181	185	0	
1:25:05 PM	35	181	204	181	34	193	212	202	178	171	181	185	0	
1:25:05 PM	35	181	204	181	34	193	212	202	178	171	181	185	0	
1:25:05 PM	35	181	204	181	34	193	212	202	178	171	181	185	0	
1:25:05 PM	35	181	204	181	34	193	212	202	178	171	181	185	0	
1:25:05 PM	35	181	204	181	34	194	212	202	178	171	181	185	0	
1:25:05 PM	35	181	204	181	34	194	212	202	178	171	181	185	0	
1:25:05 PM	35	181	204	181	34	194	212	202	178	171	181	185	0	
1:25:05 PM	35	181	204	181	34	193	212	202	178	171	181	185	0	
1:25:05 PM	35	181	204	181	34	193	212	202	178	171	181	185	0	
1:25:05 PM	35	181	204	181	34	193	212	202	180	173	181	186	0	
1:25:05 PM	36	182	204	180	35	194	212	204	185	176	183	187	0	
1:25:05 PM	38	185	205	178	35	196	213	206	191	181	185	189	0	
1:25:05 PM	40	188	205	175	36	198	214	209	196	186	188	192	0	
1:25:05 PM	43	192	206	172	37	200	215	213	202	191	192	194	0	
1:25:05 PM	45	195	207	169	37	202	215	216	206	195	195	196	0	
1:25:05 PM	47	198	208	166	38	204	216	218	209	197	197	197	0	
1:25:05 PM	48	200	209	165	38	205	216	218	211	199	197	198	0	
1:25:05 PM	49	201	209	164	39	206	217	218	211	199	197	198	0	
1:25:05 PM	50	201	209	164	39	206	217	218	209	198	198	197	0	
1:25:05 PM	49	200	208	164	39	205	217	217	205	195	197	196	0	
1:25:05 PM	48	199	208	166	38	205	216	215	201	190	195	195	0	
1:25:05 PM	45	196	208	168	37	203	215	212	195	185	192	192	0	
1:25:05 PM	42	192	207	172	36	200	214	208	188	179	188	189	0	
1:25:05 PM	39	187	206	176	35	198	213	204	182	174	184	187	0	
1:25:05 PM	37	184	205	179	34	195	212	202	179	172	181	186	0	
1:25:05 PM	35	182	204	180	34	194	212	202	178	171	181	185	0	
1:25:05 PM	35	181	204	181	34	193	212	202	178	171	181	185	0	
1:25:05 PM	35	181	204	181	34	193	212	202	178	171	181	185	0	
1:25:05 PM	35	181	204	181	34	193	212	202	178	171	181	185	0	
1:25:05 PM	35	181	204	181	34	193	212	202	178	171	181	185	0	
1:25:05 PM	35	181	204	181	34	193	212	202	178	171	181	185	0	
1:25:05 PM	35	181	204	181	34	193	212	202	178	171	181	185	0	
1:25:05 PM	35	181	204	181	34	193	212	202	178	171	181	185	0	
1:25:05 PM	35	181	204	181	34	193	212	202	178	171	181	185	0	
1:25:05 PM	35	181	204	181	34	193	212	202	178	171	181	185	0	
1:25:05 PM	35	181	204	181	34	193	212	202	178	171	181	185	0	
1:25:06 PM	35	181	204	181	34	193	212	202	178	171	181	185	0	
1:25:06 PM	35	181	204	181	34	194	212	202	178	171	181	185	0	
1:25:06 PM	35	181	204	181	34	193	212	202	178	171	181	185	0	
1:25:06 PM	35	181	204	181	34	194	212	202	178	171	181	185	0	
1:25:06 PM	35	181	204	181	34	194	212	202	178	171	181	185	0	
1:25:06 PM	35	181	204	181	34	193	212	202	178	171	181	185	0	
1:25:06 PM	35	181	204	181	34	193	212	202	178	171	181	185	0	
1:25:06 PM	35	181	204	181	34	193	212	202	178	171	181	185	0	
1:25:06 PM	35	181	204	181	34	193	212	202	178	171	181	185	0	
1:25:06 PM	35	181	204	181	34	193	212	202	178	171	181	185	0	
1:25:06 PM	35	181	204	181	34	193	212	202	178	171	181	185	0	
1:25:06 PM	35	181	204	181	34	193	212	202	178	171	181	185	0	
1:25:06 PM	35	181	204	181	34	193	212	203	180	173	183	186	0	
1:25:06 PM	36	183	204	180	34	194	212	205	183	176	186	188	0	
1:25:06 PM	39	186	205	177	35	197	213	207	185	178	188	190	0	
1:25:06 PM	41	190	206	174	36	199	214	208	186	179	189	191	0	
1:25:06 PM	42	191	206	172	37	200	214	208	186	179	189	191	0	
1:25:06 PM	42	190	206	173	36	199	214	206	185	178	188	190	0	
1:25:06 PM	40	188	206	175	36	198	213	204	182	175	185	187	0	
1:25:06 PM	37	185	205	178	35	196	212	202	179	172	182	186	0	
1:25:06 PM	36	182	204	180	34	194	212	202	178	171	181	185	0	
1:25:06 PM	35	181	204	181	34	193	212	202	178	171	181	185	0	
1:25:06 PM	35	181	204	181	34	193	212	202	178	171	181	185	0	
1:25:06 PM	35	181	204	181	34	193	212	202	178	171	181	185	0	
1:25:06 PM	35	181	204	181	34	193	212	202	178	171	181	185	0	
1:25:06 PM	35	181	204	181	34	193	212	202	178	171	181	185	0	
1:25:06 PM	35	181	204	181	34	193	212	202	178	171	181	185	0	
1:25:06 PM	35	181	204	181	34	193	212	202	178	171	181	185	0	
1:25:06 PM	35	181	204	181	34	193	212	202	177	169	178	183	0	
1:25:06 PM	33	179	204	183	33	192	213	208	190	178	182	184	0	
1:25:06 PM	34	182	206	181	33	195	217	222	222	212	208	205	0	
1:25:06 PM	47	204	214	163	35	210	222	213	223	230	231	226	0	
1:25:06 PM	64	227	223	143	39	225	211	168	172	202	218	219	0	
1:25:06 PM	60	219	219	149	39	219	184	148	141	164	187	194	0	
1:25:06 PM	43	190	207	172	36	198	178	176	159	159	176	182	0	
1:25:06 PM	34	177	202	182	34	190	198	199	175	168	178	183	0	
1:25:06 PM	35	178	203	182	34	191	211	202	176	169	179	183	0	
1:25:06 PM	35	179	204	181	34	191	212	202	176	169	179	183	0	
1:25:06 PM	35	179	204	181	34	192	212	202	176	169	179	183	0	
1:25:06 PM	35	179	204	181	34	192	212	202	176	169	179	183	0	
1:25:06 PM	35	179	204	181	34	191	212	202	176	169	179	183	0	
1:25:06 PM	35	179	204	181	34	191	212	202	176	169	179	183	0	
1:25:06 PM	35	179	204	181	34	192	212	202	176	169	179	183	0	
1:25:06 PM	35	179	204	181	34	192	212	202	176	169	179	183	0	
1:25:06 PM	35	179	204	181	34	192	212	202	176	169	179	183	0	
1:25:06 PM	35	179	204	181	34	192	212	202	176	169	179	183	0	
1:25:06 PM	35	179	204	181	34	191	212	202	176	169	179	183	0	
1:25:06 PM	35	179	204	181	34	191	212	202	176	169	179	183	0	
1:25:06 PM	35	179	204	181	34	191	212	202	178	170	179	184	0	
1:25:06 PM	36	180	204	180	34	192	212	203	183	174	181	185	0	
1:25:06 PM	38	183	205	178	35	194	212	206	188	178	183	187	0	
1:25:06 PM	40	186	205	175	36	196	214	209	194	184	186	190	0	
1:25:06 PM	43	190	206	172	37	198	214	213	200	189	190	192	0	
1:25:06 PM	45	193	207	169	37	200	215	216	204	192	193	194	0	
1:25:06 PM	47	196	208	167	38	202	216	217	207	195	195	195	0	
1:25:06 PM	48	198	209	165	38	203	216	218	209	197	195	195	0	
1:25:06 PM	49	199	209	164	39	204	217	218	209	197	195	196	0	
1:25:06 PM	50	199	209	164	39	204	217	218	208	196	196	195	0	
1:25:06 PM	49	198	208	164	39	203	217	217	204	193	195	194	0	
1:25:06 PM	48	197	208	166	38	203	216	216	199	188	193	193	0	
1:25:06 PM	46	194	208	168	37	201	215	213	193	183	190	190	0	
1:25:06 PM	43	190	207	172	36	199	214	209	186	177	186	188	0	
1:25:06 PM	40	186	206	175	35	196	213	205	180	172	182	185	0	
1:25:06 PM	37	182	205	179	35	193	212	202	177	170	180	183	0	
1:25:06 PM	35	180	204	180	34	192	212	202	176	169	179	183	0	
1:25:06 PM	35	179	204	181	34	191	212	202	176	169	179	183	0	
1:25:06 PM	35	179	204	181	34	191	212	202	176	169	179	183	0	
1:25:06 PM	35	179	204	181	34	191	212	202	176	169	179	183	0	
1:25:06 PM	35	179	204	181	34	191	212	202	176	169	179	183	0	
1:25:06 PM	35	179	204	181	34	191	212	202	176	169	179	183	0	
1:25:06 PM	35	179	204	181	34	191	212	202	176	169	179	183	0	
1:25:06 PM	35	179	204	181	34	191	212	202	176	169	179	183	0	
1:25:06 PM	35	179	204	181	34	191	212	202	176	169	179	183	0	
1:25:06 PM	35	179	204	181	34	191	212	202	176	169	179	183	0	
1:25:06 PM	35	179	204	181	34	191	212	202	176	169	179	183	0	
1:25:06 PM	35	179	204	181	34	191	212	202	176	169	179	183	0	
1:25:06 PM	35	179	204	181	34	191	212	202	176	169	179	183	0	
1:25:06 PM	35	179	204	181	34	191	212	202	176	169	179	183	0	
1:25:06 PM	35	179	204	181	34	191	212	0	0	0	0	0	0	
1:25:06 PM	35	179	204	181	34	192	212	202	176	169	179	183	0	
1:25:06 PM	35	179	204	181	34	192	212	202	176	169	179	183	0	
1:25:06 PM	35	179	204	181	34	192	212	202	176	169	179	183	0	
1:25:06 PM	35	179	204	181	34	192	212	202	176	169	179	183	0	
1:25:06 PM	35	179	204	181	34	192	212	202	176	169	179	183	0	
1:25:06 PM	35	179	204	181	34	192	212	202	176	169	179	183	0	
1:25:06 PM	35	179	204	181	34	192	212	202	176	169	179	183	0	
1:25:06 PM	35	179	204	181	34	191	212	202	176	169	179	183	0	
1:25:06 PM	35	179	204	181	34	191	212	203	178	171	181	184	0	
1:25:06 PM	36	181	204	180	34	192	212	205	181	174	184	186	0	
1:25:06 PM	38	184	205	177	35	195	213	207	183	176	186	188	0	
1:25:06 PM	41	188	206	174	36	197	214	208	184	177	187	189	0	
1:25:06 PM	42	189	206	172	36	198	214	208	184	177	187	189	0	
1:25:06 PM	42	189	206	173	36	197	214	207	183	176	186	188	0	
1:25:06 PM	40	187	206	175	36	196	213	204	181	173	183	186	0	
1:25:06 PM	38	183	205	178	35	194	212	202	178	170	180	184	0	
1:25:06 PM	36	180	204	180	34	192	212	202	176	169	179	183	0	
1:25:06 PM	35	179	204	181	34	192	212	202	176	169	179	183	0	
1:25:06 PM	35	179	204	181	34	191	212	202	176	169	179	183	0	
1:25:06 PM	35	179	204	181	34	191	212	202	176	169	179	183	0	
1:25:06 PM	35	179	204	181	34	191	212	202	176	169	179	183	0	
1:25:07 PM	35	179	204	181	34	191	212	202	176	169	179	183	0	
1:25:07 PM	35	179	204	181	34	192	212	202	176	169	179	183	0	
1:25:07 PM	35	179	204	181	34	192	212	202	176	169	179	183	0	
1:25:07 PM	35	179	204	181	34	191	212	202	175	167	177	181	0	
1:25:07 PM	34	178	204	182	33	191	212	207	186	174	179	182	0	
1:25:07 PM	34	180	205	181	33	193	217	221	217	207	203	201	0	
1:25:07 PM	46	200	214	165	35	207	222	215	222	228	229	223	0	
1:25:07 PM	63	224	223	143	39	223	212	171	175	203	218	219	0	
1:25:07 PM	61	219	219	147	39	218	186	148	140	163	186	194	0	
1:25:07 PM	44	190	207	170	37	198	178	173	155	157	174	180	0	
1:25:07 PM	35	176	202	182	35	188	197	198	172	165	176	181	0	
1:25:07 PM	35	176	203	182	34	189	210	202	174	167	177	181	0	
1:25:07 PM	35	177	204	181	34	189	212	202	174	167	177	181	0	
1:25:07 PM	35	177	204	181	34	190	212	202	174	167	177	181	0	
1:25:07 PM	35	177	204	181	34	189	212	202	174	167	177	181	0	
1:25:07 PM	35	177	204	181	34	189	212	202	174	167	177	181	0	
1:25:07 PM	35	177	204	181	34	189	212	202	174	167	177	181	0	
1:25:07 PM	35	177	204	181	34	190	212	202	174	167	177	181	0	
1:25:07 PM	35	177	204	181	34	190	212	202	174	167	177	181	0	
1:25:07 PM	35	177	204	181	34	190	212	202	174	167	177	181	0	
1:25:07 PM	35	177	204	181	34	189	212	202	174	167	177	181	0	
1:25:07 PM	35	177	204	181	34	189	212	202	174	167	177	181	0	
1:25:07 PM	35	177	204	181	34	189	212	202	174	167	177	181	0	
1:25:07 PM	35	177	204	181	34	190	212	202	176	168	177	181	0	
1:25:07 PM	36	178	204	180	35	190	212	203	180	171	178	183	0	
1:25:07 PM	37	180	204	178	35	191	212	206	186	176	181	185	0	
1:25:07 PM	40	184	205	175	36	194	213	209	192	181	184	187	0	
1:25:07 PM	43	188	206	172	37	196	214	212	197	186	187	190	0	
1:25:07 PM	45	191	207	169	37	198	215	215	202	190	190	191	0	
1:25:07 PM	47	194	208	167	38	200	216	217	205	193	192	193	0	
1:25:07 PM	48	196	209	165	38	201	216	218	207	195	193	193	0	
1:25:07 PM	49	197	209	164	39	202	217	218	207	195	193	194	0	
1:25:07 PM	50	197	209	164	39	202	217	218	206	194	194	193	0	
1:25:07 PM	49	196	208	164	39	201	217	218	202	192	193	193	0	
1:25:07 PM	48	195	208	165	38	201	216	216	198	187	191	191	0	
1:25:07 PM	46	192	208	168	37	199	215	213	192	182	188	189	0	
1:25:07 PM	43	188	207	171	36	197	214	209	185	176	184	186	0	
1:25:07 PM	40	184	206	175	36	194	213	205	178	170	180	183	0	
1:25:07 PM	37	180	205	178	35	192	212	202	175	168	178	182	0	
1:25:07 PM	35	178	204	180	34	190	212	202	174	167	177	181	0	
1:25:07 PM	35	177	204	181	34	190	212	202	174	167	177	181	0	
1:25:07 PM	35	177	204	181	34	189	212	202	174	167	177	181	0	
1:25:07 PM	35	177	204	181	34	189	212	202	174	167	177	181	0	
1:25:07 PM	35	177	204	181	34	189	212	202	174	167	177	181	0	
1:25:07 PM	35	177	204	181	34	189	212	202	174	167	177	181	0	
1:25:07 PM	35	177	204	181	34	190	212	202	174	167	177	181	0	
1:25:07 PM	35	177	204	181	34	189	212	202	174	167	177	181	0	
1:25:07 PM	35	177	204	181	34	189	212	202	174	167	177	181	0	
1:25:07 PM	35	177	204	181	34	190	212	202	174	167	177	181	0	
1:25:07 PM	35	177	204	181	34	190	212	202	174	167	177	181	0	
1:25:07 PM	35	177	204	181	34	189	212	202	174	167	177	181	0	
1:25:07 PM	35	177	204	181	34	189	212	202	174	167	177	181	0	
1:25:07 PM	35	177	204	181	34	189	212	202	174	167	177	181	0	
1:25:07 PM	35	177	204	181	34	189	212	202	174	167	177	181	0	
1:25:07 PM	35	177	204	181	34	189	212	202	174	167	177	181	0	
1:25:07 PM	35	177	204	181	34	189	212	202	174	167	177	181	0	
1:25:07 PM	35	177	204	181	34	190	212	202	174	167	177	181	0	
1:25:07 PM	35	177	204	181	34	190	212	202	174	167	177	181	0	
1:25:07 PM	35	177	204	181	34	189	212	202	174	167	177	181	0	
1:25:07 PM	35	177	204	181	34	189	212	202	174	167	177	181	0	
1:25:07 PM	35	177	204	181	34	189	212	202	174	167	177	181	0	
1:25:07 PM	35	177	204	181	34	189	212	202	174	167	177	181	0	
1:25:07 PM	35	177	204	181	34	189	212	203	175	169	178	182	0	
1:25:07 PM	36	178	204	180	34	190	212	204	179	172	181	184	0	
1:25:07 PM	38	182	205	177	35	192	212	207	181	174	184	186	0	
1:25:07 PM	41	185	206	174	36	195	213	208	182	175	185	187	0	
1:25:07 PM	42	187	206	172	37	196	214	208	182	175	185	187	0	
1:25:07 PM	42	187	206	173	36	195	214	207	181	174	184	186	0	
1:25:07 PM	40	185	206	174	36	194	213	204	179	171	181	184	0	
1:25:07 PM	38	181	205	178	35	192	212	202	176	168	178	182	0	
1:25:07 PM	36	178	204	180	34	190	212	202	174	167	177	181	0	
1:25:07 PM	35	177	204	181	34	190	212	202	174	167	177	181	0	
1:25:07 PM	35	177	204	181	34	190	212	202	174	167	177	181	0	
1:25:07 PM	35	177	204	181	34	189	212	202	174	167	177	181	0	
1:25:07 PM	35	177	204	181	34	189	212	202	174	167	177	181	0	
1:25:07 PM	35	177	204	181	34	189	212	202	174	167	177	181	0	
1:25:07 PM	35	177	204	181	34	189	212	202	174	167	177	181	0	
1:25:07 PM	35	177	204	181	34	189	212	202	174	167	177	181	0	
1:25:07 PM	35	177	204	181	34	189	212	201	173	165	175	179	0	
1:25:07 PM	34	176	204	182	34	189	212	206	182	171	176	179	0	
1:25:07 PM	33	177	205	182	33	190	216	220	213	202	198	197	0	
1:25:07 PM	45	196	213	167	34	203	222	216	222	226	226	222	0	
1:25:07 PM	62	223	222	144	38	222	214	175	177	204	218	221	0	
1:25:07 PM	62	220	220	146	39	219	188	147	138	163	186	195	0	
1:25:07 PM	45	192	208	169	37	199	177	171	151	154	172	181	0	
1:25:07 PM	35	176	202	181	35	188	195	197	170	163	174	181	0	
1:25:07 PM	35	176	203	182	34	189	210	202	172	165	175	181	0	
1:25:07 PM	35	177	204	181	34	190	212	202	172	165	175	181	0	
1:25:07 PM	35	177	204	181	34	190	212	202	172	165	175	181	0	
1:25:07 PM	35	177	204	181	34	189	212	202	172	165	175	181	0	
1:25:07 PM	35	177	204	181	34	190	212	202	172	165	175	181	0	
1:25:07 PM	35	177	204	181	34	189	212	202	172	165	175	181	0	
1:25:07 PM	35	177	204	181	34	189	212	202	172	165	175	181	0	
1:25:07 PM	35	177	204	181	34	190	212	202	172	165	175	181	0	
1:25:07 PM	35	177	204	181	34	190	212	202	172	165	175	181	0	
1:25:07 PM	35	177	204	181	34	190	212	202	172	165	175	181	0	
1:25:07 PM	35	177	204	181	34	190	212	202	172	165	175	181	0	
1:25:07 PM	35	177	204	181	34	190	212	202	172	165	175	181	0	
1:25:07 PM	35	177	204	181	34	190	212	202	174	166	175	181	0	
1:25:07 PM	36	178	204	180	34	190	212	203	178	169	176	183	0	
1:25:08 PM	37	180	204	178	35	191	212	206	183	174	179	185	0	
1:25:08 PM	40	184	205	175	36	193	213	208	189	179	181	187	0	
1:25:08 PM	42	187	206	172	37	196	214	212	195	184	185	189	0	
1:25:08 PM	45	191	207	169	37	198	215	215	199	188	188	191	0	
1:25:08 PM	47	193	208	167	38	200	216	217	203	191	190	193	0	
1:25:08 PM	48	195	209	165	38	201	216	218	205	192	191	193	0	
1:25:08 PM	49	197	209	164	39	202	217	218	205	193	191	194	0	
1:25:08 PM	50	197	209	164	39	202	217	218	204	192	192	193	0	
1:25:08 PM	49	196	209	164	39	202	217	218	200	190	191	193	0	
1:25:08 PM	48	195	209	165	38	201	216	216	196	185	189	191	0	
1:25:08 PM	46	193	208	168	37	200	215	213	190	180	186	189	0	
1:25:08 PM	43	189	207	171	36	197	214	209	183	174	182	186	0	
1:25:08 PM	40	184	206	175	35	194	213	205	177	168	178	183	0	
1:25:08 PM	37	180	205	178	35	192	212	203	173	166	176	182	0	
1:25:08 PM	36	178	204	180	34	190	212	202	172	165	175	181	0	
1:25:08 PM	35	177	204	181	34	190	212	202	172	165	175	181	0	
1:25:08 PM	35	177	204	181	34	190	212	202	172	165	175	181	0	
1:25:08 PM	35	177	204	181	34	190	212	202	172	165	175	181	0	
1:25:08 PM	35	177	204	181	34	190	212	202	172	165	175	181	0	
1:25:08 PM	35	177	204	181	34	190	212	202	172	165	175	181	0	
1:25:08 PM	35	177	204	181	34	190	212	202	172	165	175	181	0	
1:25:08 PM	35	177	204	181	34	190	212	202	172	165	175	181	0	
1:25:08 PM	35	177	204	181	34	190	212	202	172	165	175	181	0	
1:25:08 PM	35	177	204	181	34	190	212	202	172	165	175	181	0	
1:25:08 PM	35	177	204	181	34	190	212	202	172	165	175	181	0	
1:25:08 PM	35	177	204	181	34	190	212	202	172	165	175	181	0	
1:25:08 PM	35	177	204	181	34	190	212	202	172	165	175	181	0	
1:25:08 PM	35	177	204	181	34	190	212	202	172	165	175	181	0	
1:25:08 PM	35	177	204	181	34	190	212	202	172	165	175	181	0	
1:25:08 PM	35	177	204	181	34	190	212	202	172	165	175	181	0	
1:25:08 PM	35	177	204	181	34	190	212	202	172	165	175	181	0	
1:25:08 PM	35	177	204	181	34	190	212	202	172	165	175	181	0	
1:25:08 PM	35	177	204	181	34	190	212	202	172	165	175	181	0	
1:25:08 PM	35	177	204	181	34	190	212	202	172	165	175	181	0	
1:25:08 PM	35	177	204	181	34	190	212	202	172	165	175	181	0	
1:25:08 PM	35	177	204	181	34	190	212	202	172	165	175	181	0	
1:25:08 PM	35	177	204	181	34	190	212	202	172	165	175	181	0	
1:25:08 PM	35	177	204	181	34	190	212	202	173	167	176	182	0	
1:25:08 PM	36	178	204	180	34	190	212	204	176	169	179	184	0	
1:25:08 PM	38	181	205	177	35	192	213	207	179	172	182	186	0	
1:25:08 PM	41	185	206	174	36	195	213	208	180	173	183	187	0	
1:25:08 PM	42	187	206	172	36	196	214	208	180	173	183	187	0	
1:25:08 PM	42	187	206	173	36	196	214	207	179	172	182	186	0	
1:25:08 PM	41	185	206	174	36	195	213	205	177	170	180	184	0	
1:25:08 PM	38	181	205	177	35	192	212	202	174	167	176	182	0	
1:25:08 PM	36	178	204	180	34	190	212	202	172	165	175	181	0	
1:25:08 PM	35	177	204	181	34	190	212	202	172	165	175	181	0	
1:25:08 PM	35	177	204	181	34	190	212	202	172	165	175	181	0	
1:25:08 PM	35	177	204	181	34	190	212	202	172	165	175	181	0	
1:25:08 PM	35	177	204	181	34	190	212	202	172	165	175	181	0	
1:25:08 PM	35	177	204	181	34	190	212	202	172	165	175	181	0	
1:25:08 PM	35	177	204	181	34	190	212	202	172	165	175	181	0	
1:25:08 PM	35	177	204	181	34	190	212	202	172	165	175	181	0	
1:25:08 PM	35	177	204	181	34	190	212	202	171	164	173	179	0	
1:25:08 PM	34	176	204	182	34	189	212	205	179	168	173	179	0	
1:25:08 PM	33	177	205	182	33	190	216	219	208	197	194	195	0	
1:25:08 PM	43	194	212	169	34	202	222	218	223	224	223	221	0	
1:25:08 PM	61	222	222	145	38	221	215	179	182	205	219	222	0	
1:25:08 PM	63	222	221	145	39	220	190	147	139	163	186	197	0	
1:25:08 PM	46	194	209	167	37	200	177	168	149	152	170	181	0	
1:25:08 PM	35	176	203	181	35	189	193	196	169	161	172	180	0	
1:25:08 PM	34	176	203	182	34	189	209	202	172	163	173	181	0	
1:25:08 PM	35	177	204	181	34	190	212	202	172	163	173	181	0	
1:25:08 PM	35	177	204	181	34	190	212	202	172	163	173	181	0	
1:25:08 PM	35	177	204	181	34	190	212	202	172	163	173	181	0	
1:25:08 PM	35	177	204	181	34	190	212	202	172	163	173	181	0	
1:25:08 PM	35	177	204	181	34	189	212	202	172	163	173	181	0	
1:25:08 PM	35	177	204	181	34	190	212	202	172	163	173	181	0	
1:25:08 PM	35	177	204	181	34	190	212	202	172	163	173	181	0	
1:25:08 PM	35	177	204	181	34	190	212	202	172	163	173	181	0	
1:25:08 PM	35	177	204	181	34	190	212	202	172	163	173	181	0	
1:25:08 PM	35	177	204	181	34	190	212	202	172	163	173	181	0	
1:25:08 PM	35	177	204	181	34	189	212	202	172	163	173	181	0	
1:25:08 PM	35	177	204	181	34	190	212	202	174	164	173	181	0	
1:25:08 PM	36	178	204	180	34	190	212	203	177	167	174	183	0	
1:25:08 PM	37	180	204	178	35	191	212	205	183	171	176	185	0	
1:25:08 PM	40	183	205	175	36	193	213	208	189	176	179	187	0	
1:25:08 PM	42	187	206	172	36	196	214	212	194	182	183	189	0	
1:25:08 PM	45	190	207	169	37	198	215	215	199	186	186	191	0	
1:25:08 PM	47	193	208	167	38	200	216	217	202	189	188	193	0	
1:25:08 PM	48	195	209	165	38	201	216	218	205	190	189	193	0	
1:25:08 PM	49	197	209	164	39	202	217	218	205	191	189	194	0	
1:25:08 PM	50	197	209	164	39	202	217	218	204	191	190	193	0	
1:25:08 PM	50	196	208	164	39	201	217	218	201	188	189	193	0	
1:25:08 PM	48	195	208	165	38	201	217	216	196	183	187	191	0	
1:25:08 PM	46	193	208	167	37	200	215	213	191	179	185	189	0	
1:25:08 PM	43	189	207	171	36	197	214	210	184	173	181	186	0	
1:25:08 PM	40	185	206	174	36	194	213	205	177	167	177	184	0	
1:25:08 PM	37	181	205	178	35	192	212	203	173	164	174	182	0	
1:25:08 PM	36	178	204	180	34	190	212	202	172	163	173	181	0	
1:25:08 PM	35	177	204	181	34	190	212	202	172	163	173	181	0	
1:25:08 PM	35	178	204	181	34	190	212	202	172	163	173	181	0	
1:25:08 PM	35	177	204	181	34	190	212	202	172	163	173	181	0	
1:25:08 PM	35	177	204	181	34	190	212	202	172	163	173	181	0	
1:25:08 PM	35	177	204	181	34	190	212	202	172	163	173	181	0	
1:25:08 PM	35	177	204	181	34	190	212	202	172	163	173	181	0	
1:25:08 PM	35	177	204	181	34	190	212	202	172	163	173	181	0	
1:25:08 PM	35	177	204	181	34	190	212	202	172	163	173	181	0	
1:25:08 PM	35	177	204	181	34	190	212	202	172	163	173	181	0	
1:25:08 PM	35	177	204	181	34	190	212	202	172	163	173	181	0	
1:25:09 PM	35	177	204	181	34	190	212	202	172	163	173	181	0	
1:25:09 PM	35	177	204	181	34	190	212	202	172	163	173	181	0	
1:25:09 PM	35	177	204	181	34	190	212	202	172	163	173	181	0	
1:25:09 PM	35	177	204	181	34	190	212	202	172	163	173	181	0	
1:25:09 PM	35	177	204	181	34	190	212	202	172	163	173	181	0	
1:25:09 PM	35	177	204	181	34	190	212	202	172	163	173	181	0	
1:25:09 PM	35	177	204	181	34	190	212	202	172	163	173	181	0	
1:25:09 PM	35	177	204	181	34	190	212	202	172	163	173	181	0	
1:25:09 PM	35	177	204	181	34	190	212	202	172	163	173	181	0	
1:25:09 PM	35	177	204	181	34	190	212	202	172	163	173	181	0	
1:25:09 PM	35	177	204	181	34	190	212	202	172	163	173	181	0	
1:25:09 PM	35	177	204	181	34	190	212	202	172	163	173	181	0	
1:25:09 PM	35	177	204	181	34	190	212	202	173	164	174	182	0	
1:25:09 PM	36	178	204	180	34	190	212	204	176	167	177	183	0	
1:25:09 PM	38	181	205	178	35	192	212	207	179	170	180	186	0	
1:25:09 PM	40	185	206	174	36	195	213	208	180	171	181	187	0	
1:25:09 PM	42	187	206	172	36	196	214	208	180	171	181	187	0	
1:25:09 PM	42	187	206	172	36	196	214	207	179	170	180	186	0	
1:25:09 PM	41	185	206	174	36	195	213	205	177	168	178	184	0	
1:25:09 PM	38	182	205	177	35	192	213	203	174	165	175	182	0	
1:25:09 PM	36	178	204	180	34	190	212	202	172	163	173	181	0	
1:25:09 PM	35	177	204	181	34	190	212	202	172	163	173	181	0	
1:25:09 PM	35	177	204	181	34	190	212	202	172	163	173	181	0	
1:25:09 PM	35	177	204	181	34	190	212	202	172	163	173	181	0	
1:25:09 PM	35	177	204	181	34	189	212	202	172	163	173	181	0	
1:25:09 PM	35	177	204	181	34	189	212	202	172	163	173	181	0	
1:25:09 PM	35	177	204	181	34	189	212	202	172	163	173	181	0	
1:25:09 PM	35	177	204	181	34	189	212	202	172	163	173	181	0	
1:25:09 PM	35	177	204	181	34	189	212	202	171	162	172	180	0	
1:25:09 PM	34	176	203	182	34	189	212	205	177	165	171	178	0	
1:25:09 PM	33	176	205	182	33	189	215	218	206	192	190	193	0	
1:25:09 PM	42	192	211	170	34	201	221	219	222	222	222	220	0	
1:25:09 PM	60	221	222	147	38	220	216	182	184	206	221	223	0	
1:25:09 PM	63	223	221	144	40	221	192	148	138	164	188	199	0	
1:25:09 PM	47	196	210	165	37	202	177	165	145	150	170	182	0	
1:25:09 PM	36	177	203	181	35	189	191	195	166	158	172	180	0	
1:25:09 PM	34	176	203	182	34	188	209	202	170	161	173	181	0	
1:25:09 PM	35	177	204	181	34	189	212	202	170	161	173	181	0	
1:25:09 PM	35	177	204	181	34	189	212	202	170	161	173	181	0	
1:25:09 PM	35	177	204	181	34	190	212	202	170	161	173	181	0	
1:25:09 PM	35	177	204	181	34	190	212	202	170	161	173	181	0	
1:25:09 PM	35	177	204	181	34	190	212	202	170	161	173	181	0	
1:25:09 PM	35	177	204	181	34	190	212	202	170	161	173	181	0	
1:25:09 PM	35	177	204	181	34	189	212	202	170	161	173	181	0	
1:25:09 PM	35	177	204	181	34	190	212	202	170	161	173	181	0	
1:25:09 PM	35	177	204	181	34	190	212	202	170	161	173	181	0	
1:25:09 PM	35	177	204	181	34	189	212	202	170	161	173	181	0	
1:25:09 PM	35	177	204	181	34	189	212	202	170	161	173	181	0	
1:25:09 PM	35	177	204	181	34	189	212	202	171	162	173	181	0	
1:25:09 PM	35	178	204	180	34	190	212	203	175	164	174	182	0	
1:25:09 PM	37	180	204	179	35	191	212	205	180	169	176	185	0	
1:25:09 PM	40	183	205	176	36	193	213	208	186	174	179	187	0	
1:25:09 PM	42	187	206	173	36	195	214	211	192	179	182	189	0	
1:25:09 PM	44	190	207	170	37	198	215	215	197	183	186	191	0	
1:25:09 PM	46	193	208	167	38	200	216	217	200	186	188	192	0	
1:25:09 PM	48	195	209	165	38	201	216	218	202	188	189	193	0	
1:25:09 PM	49	197	209	164	38	202	217	218	203	189	189	194	0	
1:25:09 PM	50	197	209	164	39	202	217	218	202	189	190	193	0	
1:25:09 PM	49	197	209	164	39	202	217	218	199	186	189	193	0	
1:25:09 PM	48	195	209	165	38	201	217	216	195	182	188	192	0	
1:25:09 PM	46	193	208	167	37	200	215	214	189	177	185	189	0	
1:25:09 PM	44	189	207	171	37	197	214	210	183	171	181	186	0	
1:25:09 PM	40	185	206	174	36	195	213	206	176	165	177	184	0	
1:25:09 PM	37	181	205	178	35	192	212	203	171	162	174	182	0	
1:25:09 PM	36	178	204	180	34	190	212	202	170	161	173	181	0	
1:25:09 PM	35	177	204	181	34	190	212	202	170	161	173	181	0	
1:25:09 PM	35	177	204	181	34	190	212	202	170	161	173	181	0	
1:25:09 PM	35	177	204	181	34	190	212	202	170	161	173	181	0	
1:25:09 PM	35	177	204	181	34	190	212	202	170	161	173	181	0	
1:25:09 PM	35	177	204	181	34	190	212	202	170	161	173	181	0	
1:25:09 PM	35	177	204	181	34	189	212	202	170	161	173	181	0	
1:25:09 PM	35	177	204	181	34	189	212	202	170	161	173	181	0	
1:25:09 PM	35	177	204	181	34	189	212	202	170	161	173	181	0	
1:25:09 PM	35	177	204	181	34	189	212	202	170	161	173	181	0	
1:25:09 PM	35	177	204	181	34	189	212	202	170	161	173	181	0	
1:25:09 PM	35	177	204	181	34	189	212	202	170	161	173	181	0	
1:25:09 PM	35	177	204	181	34	190	212	202	170	161	173	181	0	
1:25:09 PM	35	177	204	181	34	189	212	202	170	161	173	181	0	
1:25:09 PM	35	177	204	181	34	189	212	202	170	161	173	181	0	
1:25:09 PM	35	177	204	181	34	190	212	202	170	161	173	181	0	
1:25:09 PM	35	177	204	181	34	190	212	202	170	161	173	181	0	
1:25:09 PM	35	177	204	181	34	190	212	202	170	161	173	181	0	
1:25:09 PM	35	177	204	181	34	190	212	202	170	161	173	181	0	
1:25:09 PM	35	177	204	181	34	189	212	202	170	161	173	181	0	
1:25:09 PM	35	177	204	181	34	189	212	202	170	161	173	181	0	
1:25:09 PM	35	177	204	181	34	190	212	202	170	161	173	181	0	
1:25:09 PM	35	177	204	181	34	190	212	202	170	161	173	181	0	
1:25:09 PM	35	177	204	181	34	190	212	202	171	162	174	181	0	
1:25:09 PM	36	178	204	180	34	190	212	204	174	165	177	183	0	
1:25:09 PM	38	181	205	178	35	192	212	207	177	168	179	186	0	
1:25:09 PM	40	185	206	175	36	194	213	208	178	169	181	187	0	
1:25:09 PM	42	187	206	173	36	196	214	208	178	169	181	187	0	
1:25:09 PM	42	187	206	172	36	196	214	207	177	168	180	186	0	
1:25:09 PM	41	186	206	174	36	195	214	205	176	166	178	184	0	
1:25:09 PM	38	182	205	177	35	193	213	203	172	163	175	182	0	
1:25:09 PM	36	179	204	180	34	190	212	202	170	161	173	181	0	
1:25:09 PM	35	177	204	181	34	190	212	202	170	161	173	181	0	
1:25:09 PM	35	177	204	181	34	190	212	202	170	161	173	181	0	
1:25:09 PM	35	177	204	181	34	190	212	202	170	161	173	181	0	
1:25:09 PM	35	177	204	181	34	190	212	202	170	161	173	181	0	
1:25:10 PM	35	177	204	181	34	190	212	202	170	161	173	181	0	
1:25:10 PM	35	177	204	181	34	190	212	202	170	161	173	181	0	
1:25:10 PM	35	177	204	181	34	190	212	202	170	161	173	181	0	
1:25:10 PM	35	177	204	181	34	189	212	202	169	160	172	180	0	
1:25:10 PM	34	176	204	182	34	189	212	204	174	162	170	178	0	
1:25:10 PM	33	176	204	183	33	189	215	217	201	187	187	191	0	
1:25:10 PM	41	190	211	172	34	199	221	220	223	221	221	218	0	
1:25:10 PM	59	219	221	148	38	219	217	186	189	209	223	222	0	
1:25:10 PM	64	222	222	143	40	222	195	149	139	166	190	198	0	
1:25:10 PM	49	196	210	164	38	203	177	163	143	150	171	180	0	
1:25:10 PM	36	176	203	180	35	189	190	194	165	157	171	178	0	
1:25:10 PM	34	174	203	182	34	188	208	202	170	161	173	179	0	
1:25:10 PM	35	175	204	181	34	189	212	202	170	161	173	179	0	
1:25:10 PM	35	175	204	181	34	190	212	202	170	161	173	179	0	
1:25:10 PM	35	175	204	181	34	190	212	202	170	161	173	179	0	
1:25:10 PM	35	175	204	181	34	190	212	202	170	161	173	179	0	
1:25:10 PM	35	175	204	181	34	190	212	202	170	161	173	179	0	
1:25:10 PM	35	175	204	181	34	190	212	202	170	161	173	179	0	
1:25:10 PM	35	175	204	181	34	190	212	202	170	161	173	179	0	
1:25:10 PM	35	175	204	181	34	189	212	202	170	161	173	179	0	
1:25:10 PM	35	175	204	181	34	190	212	202	170	161	173	179	0	
1:25:10 PM	35	175	204	181	34	190	212	202	170	161	173	179	0	
1:25:10 PM	35	175	204	181	34	190	212	202	170	161	173	179	0	
1:25:10 PM	35	175	204	181	34	190	212	202	171	162	173	179	0	
1:25:10 PM	35	176	204	180	34	190	212	203	175	164	174	180	0	
1:25:10 PM	37	178	204	179	35	191	212	205	180	169	176	182	0	
1:25:10 PM	39	181	205	176	36	193	213	208	186	174	179	185	0	
1:25:10 PM	42	184	206	173	36	195	214	211	192	179	182	187	0	
1:25:10 PM	44	188	207	170	37	197	215	215	196	183	186	189	0	
1:25:10 PM	46	191	208	167	38	199	216	217	200	186	188	191	0	
1:25:10 PM	48	193	209	166	38	201	216	218	202	188	189	191	0	
1:25:10 PM	49	195	209	164	38	202	217	218	203	189	189	192	0	
1:25:10 PM	50	195	209	164	39	202	217	218	203	189	190	191	0	
1:25:10 PM	50	195	209	164	39	202	217	218	199	187	189	191	0	
1:25:10 PM	49	194	209	165	39	201	217	216	195	182	188	190	0	
1:25:10 PM	46	191	209	167	37	200	216	214	190	177	185	187	0	
1:25:10 PM	44	188	208	170	37	198	215	210	183	172	181	185	0	
1:25:10 PM	41	183	206	174	36	195	213	206	176	166	177	182	0	
1:25:10 PM	38	179	205	178	35	192	212	203	172	162	174	180	0	
1:25:10 PM	36	176	204	180	34	190	212	202	170	161	173	179	0	
1:25:10 PM	35	175	204	181	34	190	212	202	170	161	173	179	0	
1:25:10 PM	35	175	204	181	34	190	212	202	170	161	173	179	0	
1:25:10 PM	35	175	204	181	34	190	212	202	170	161	173	179	0	
1:25:10 PM	35	175	204	181	34	190	212	202	170	161	173	179	0	
1:25:10 PM	35	175	204	181	34	190	212	202	170	161	173	179	0	
1:25:10 PM	35	175	204	181	34	190	212	202	170	161	173	179	0	
1:25:10 PM	35	175	204	181	34	190	212	202	170	161	173	179	0	
1:25:10 PM	35	175	204	181	34	190	212	202	170	161	173	179	0	
1:25:10 PM	35	175	204	181	34	190	212	202	170	161	173	179	0	
1:25:10 PM	35	175	204	181	34	190	212	202	170	161	173	179	0	
1:25:10 PM	35	175	204	181	34	190	212	202	170	161	173	179	0	
1:25:10 PM	35	175	204	181	34	190	212	202	170	161	173	179	0	
1:25:10 PM	35	175	204	181	34	190	212	202	170	161	173	179	0	
1:25:10 PM	35	175	204	181	34	190	212	202	170	161	173	179	0	
1:25:10 PM	35	175	204	181	34	190	212	202	170	161	173	179	0	
1:25:10 PM	35	175	204	181	34	190	212	202	170	161	173	179	0	
1:25:10 PM	35	175	204	181	34	190	212	202	170	161	173	179	0	
1:25:10 PM	35	175	204	181	34	190	212	202	170	161	173	179	0	
1:25:10 PM	35	175	204	181	34	190	212	202	170	161	173	179	0	
1:25:10 PM	35	175	204	181	34	190	212	202	170	161	173	179	0	
1:25:10 PM	35	175	204	181	34	190	212	202	170	161	173	179	0	
1:25:10 PM	35	175	204	181	34	190	212	202	170	161	173	179	0	
1:25:10 PM	35	175	204	181	34	190	212	202	171	162	174	179	0	
1:25:10 PM	35	176	204	180	34	190	212	204	174	165	177	181	0	
1:25:10 PM	37	179	205	178	35	192	212	206	177	168	179	184	0	
1:25:10 PM	40	182	206	175	36	194	213	208	178	169	180	185	0	
1:25:10 PM	42	185	206	173	36	196	214	208	178	169	181	185	0	
1:25:10 PM	42	185	206	172	37	196	214	207	178	168	180	185	0	
1:25:10 PM	41	184	206	174	36	195	214	205	176	167	178	183	0	
1:25:10 PM	38	180	205	177	35	193	213	203	173	163	175	180	0	
1:25:10 PM	36	177	204	180	34	191	212	202	171	161	173	179	0	
1:25:10 PM	35	175	204	181	34	190	212	202	170	161	173	179	0	
1:25:10 PM	35	175	204	181	34	190	212	202	170	161	173	179	0	
1:25:10 PM	35	175	204	181	34	190	212	202	170	161	173	179	0	
1:25:10 PM	35	175	204	181	34	190	212	202	170	161	173	179	0	
1:25:10 PM	35	175	204	181	34	190	212	202	170	161	173	179	0	
1:25:10 PM	35	175	204	181	34	190	212	202	170	161	173	179	0	
1:25:10 PM	35	175	204	181	34	190	212	202	170	161	173	179	0	
1:25:10 PM	35	175	204	181	34	190	212	202	169	160	172	178	0	
1:25:10 PM	34	175	204	182	34	189	212	204	173	161	170	176	0	
1:25:10 PM	33	173	204	183	33	189	215	216	198	184	185	188	0	
1:25:10 PM	40	186	210	173	33	198	221	221	223	220	218	214	0	
1:25:10 PM	58	215	221	149	37	218	218	190	193	212	222	222	0	
1:25:10 PM	64	223	222	142	39	223	197	150	141	168	190	200	0	
1:25:10 PM	50	198	211	162	38	205	177	160	141	150	169	181	0	
1:25:10 PM	37	177	203	179	35	190	188	192	164	157	169	178	0	
1:25:10 PM	34	174	203	182	34	188	208	202	170	161	171	179	0	
1:25:10 PM	35	175	204	181	34	189	212	202	170	161	171	179	0	
1:25:10 PM	35	175	204	181	34	190	212	202	170	161	171	179	0	
1:25:10 PM	35	175	204	181	34	190	212	202	170	161	171	179	0	
1:25:10 PM	35	175	204	181	34	190	212	202	170	161	171	179	0	
1:25:10 PM	35	175	204	181	34	190	212	202	170	161	171	179	0	
1:25:10 PM	35	175	204	181	34	190	212	202	170	161	171	179	0	
1:25:10 PM	35	175	204	181	34	190	212	202	170	161	171	179	0	
1:25:10 PM	35	175	204	181	34	190	212	202	170	161	171	179	0	
1:25:10 PM	35	175	204	181	34	190	212	202	170	161	171	179	0	
1:25:10 PM	35	175	204	181	34	190	212	202	170	161	171	179	0	
1:25:10 PM	35	175	204	181	34	190	212	202	170	161	171	179	0	
1:25:10 PM	35	175	204	181	34	190	212	202	171	162	171	179	0	
1:25:10 PM	35	176	204	180	34	190	212	203	174	164	172	180	0	
1:25:11 PM	37	177	204	179	35	191	212	205	180	168	174	182	0	
1:25:11 PM	39	181	205	176	35	193	213	208	186	173	177	185	0	
1:25:11 PM	42	184	206	173	36	195	214	211	191	179	180	187	0	
1:25:11 PM	44	188	207	170	37	197	215	214	196	183	183	189	0	
1:25:11 PM	46	191	208	168	38	199	216	217	200	186	186	190	0	
1:25:11 PM	48	193	209	166	38	201	216	218	202	188	187	191	0	
1:25:11 PM	49	195	209	164	38	202	217	218	203	189	187	192	0	
1:25:11 PM	50	195	209	164	39	202	217	218	203	189	188	191	0	
1:25:11 PM	50	195	209	164	39	202	217	218	200	187	187	191	0	
1:25:11 PM	49	194	209	165	39	201	217	217	195	183	186	190	0	
1:25:11 PM	47	192	208	167	38	200	216	214	190	178	183	188	0	
1:25:11 PM	44	188	208	170	37	198	215	210	184	172	180	185	0	
1:25:11 PM	41	184	207	174	36	195	214	206	177	166	175	182	0	
1:25:11 PM	38	180	205	177	35	192	212	203	172	162	172	180	0	
1:25:11 PM	36	177	204	180	34	190	212	202	170	161	171	179	0	
1:25:11 PM	35	175	204	181	34	190	212	202	170	161	171	179	0	
1:25:11 PM	35	175	204	181	34	190	212	202	170	161	171	179	0	
1:25:11 PM	35	175	204	181	34	190	212	202	170	161	171	179	0	
1:25:11 PM	35	175	204	181	34	190	212	202	170	161	171	179	0	
1:25:11 PM	35	175	204	181	34	190	212	202	170	161	171	179	0	
1:25:11 PM	35	175	204	181	34	190	212	202	170	161	171	179	0	
1:25:11 PM	35	175	204	181	34	190	212	202	170	161	171	179	0	
1:25:11 PM	35	175	204	181	34	189	212	202	170	161	171	179	0	
1:25:11 PM	35	175	204	181	34	190	212	202	170	161	171	179	0	
1:25:11 PM	35	175	204	181	34	190	212	202	170	161	171	179	0	
1:25:11 PM	35	175	204	181	34	190	212	202	170	161	171	179	0	
1:25:11 PM	35	175	204	181	34	190	212	202	170	161	171	179	0	
1:25:11 PM	35	175	204	181	34	190	212	202	170	161	171	179	0	
1:25:11 PM	35	175	204	181	34	190	212	202	170	161	171	179	0	
1:25:11 PM	35	175	204	181	34	190	212	202	170	161	171	179	0	
1:25:11 PM	35	175	204	181	34	190	212	202	170	161	171	179	0	
1:25:11 PM	35	175	204	181	34	190	212	202	170	161	171	179	0	
1:25:11 PM	35	175	204	181	34	190	212	202	170	161	171	179	0	
1:25:11 PM	35	175	204	181	34	190	212	202	170	161	171	179	0	
1:25:11 PM	35	175	204	181	34	190	212	202	170	161	171	179	0	
1:25:11 PM	35	175	204	181	34	190	212	202	170	161	171	179	0	
1:25:11 PM	35	175	204	181	34	190	212	202	170	161	171	179	0	
1:25:11 PM	35	175	204	181	34	190	212	202	171	162	172	179	0	
1:25:11 PM	35	176	204	180	34	190	212	204	173	165	174	181	0	
1:25:11 PM	37	178	205	178	35	191	212	206	177	168	177	183	0	
1:25:11 PM	40	182	206	175	35	194	213	208	178	169	178	185	0	
1:25:11 PM	42	185	206	173	36	195	214	208	178	169	179	185	0	
1:25:11 PM	42	185	206	172	37	196	214	207	178	169	178	185	0	
1:25:11 PM	41	184	206	174	36	195	214	205	176	167	177	183	0	
1:25:11 PM	39	181	205	176	35	193	213	203	173	164	173	180	0	
1:25:11 PM	36	177	204	179	35	191	212	202	171	162	171	179	0	
1:25:11 PM	35	175	204	181	34	190	212	202	170	161	171	179	0	
1:25:11 PM	35	175	204	181	34	190	212	202	170	161	171	179	0	
1:25:11 PM	35	175	204	181	34	189	212	202	170	161	171	179	0	
1:25:11 PM	35	175	204	181	34	189	212	202	170	161	171	179	0	
1:25:11 PM	35	175	204	181	34	190	212	202	170	161	171	179	0	
1:25:11 PM	35	175	204	181	34	190	212	202	170	161	171	179	0	
1:25:11 PM	35	175	204	181	34	190	212	202	170	161	171	179	0	
1:25:11 PM	35	175	204	181	34	190	212	202	169	161	170	178	0	
1:25:11 PM	35	175	204	181	34	189	212	203	172	160	168	176	0	
1:25:11 PM	33	173	204	183	33	189	214	214	196	181	181	186	0	
1:25:11 PM	39	184	209	174	33	197	220	222	223	218	214	213	0	
1:25:11 PM	57	213	220	151	37	217	219	194	198	214	223	223	0	
1:25:11 PM	65	222	223	142	39	223	199	151	144	171	193	202	0	
1:25:11 PM	52	198	212	160	38	206	177	158	140	150	170	182	0	
1:25:11 PM	37	176	204	179	35	191	186	191	163	156	169	178	0	
1:25:11 PM	34	171	203	182	34	188	207	201	170	161	171	179	0	
1:25:11 PM	35	173	204	181	34	189	212	202	170	161	171	179	0	
1:25:11 PM	35	173	204	181	34	190	212	202	170	161	171	179	0	
1:25:11 PM	35	173	204	181	34	190	212	202	170	161	171	179	0	
1:25:11 PM	35	173	204	181	34	190	212	202	170	161	171	179	0	
1:25:11 PM	35	173	204	181	34	190	212	202	170	161	171	179	0	
1:25:11 PM	35	174	204	181	34	190	212	202	170	161	171	179	0	
1:25:11 PM	35	174	204	181	34	190	212	202	170	161	171	179	0	
1:25:11 PM	35	174	204	181	34	190	212	202	170	161	171	179	0	
1:25:11 PM	35	174	204	181	34	190	212	202	170	161	171	179	0	
1:25:11 PM	35	174	204	181	34	190	212	202	170	161	171	179	0	
1:25:11 PM	35	173	204	181	34	190	212	202	170	161	171	179	0	
1:25:11 PM	35	173	204	181	34	190	212	202	171	162	171	179	0	
1:25:11 PM	35	174	204	180	34	190	212	203	174	164	172	180	0	
1:25:11 PM	36	175	204	179	35	191	212	205	179	168	174	182	0	
1:25:11 PM	39	178	205	176	35	193	213	207	185	173	177	184	0	
1:25:11 PM	42	182	206	173	36	195	214	211	191	178	180	187	0	
1:25:11 PM	44	185	207	170	37	197	215	214	196	183	183	189	0	
1:25:11 PM	46	188	208	168	38	199	216	217	199	186	186	190	0	
1:25:11 PM	48	191	209	166	38	201	216	218	202	188	187	191	0	
1:25:11 PM	49	192	209	164	38	202	216	218	203	189	187	192	0	
1:25:11 PM	50	193	209	164	39	202	217	218	203	189	188	191	0	
1:25:11 PM	49	193	209	164	39	202	217	218	200	187	187	191	0	
1:25:11 PM	49	192	209	165	39	201	217	217	196	183	186	190	0	
1:25:11 PM	47	190	209	167	38	200	216	214	191	178	184	188	0	
1:25:11 PM	44	186	208	170	37	198	215	211	184	172	180	185	0	
1:25:11 PM	41	182	207	173	36	195	214	207	177	167	176	182	0	
1:25:11 PM	38	178	205	177	35	193	213	203	172	163	173	180	0	
1:25:11 PM	36	175	204	180	34	191	212	202	170	161	171	179	0	
1:25:11 PM	35	173	204	181	34	190	212	202	170	161	171	179	0	
1:25:11 PM	35	173	204	181	34	190	212	202	170	161	171	179	0	
1:25:11 PM	35	173	204	181	34	190	212	202	170	161	171	179	0	
1:25:11 PM	35	173	204	181	34	190	212	202	170	161	171	179	0	
1:25:11 PM	35	173	204	181	34	190	212	202	170	161	171	179	0	
1:25:11 PM	35	173	204	181	34	190	212	202	170	161	171	179	0	
1:25:11 PM	35	173	204	181	34	190	212	202	170	161	171	179	0	
1:25:11 PM	35	173	204	181	34	190	212	202	170	161	171	179	0	
1:25:11 PM	35	173	204	181	34	190	212	202	170	161	171	179	0	
1:25:11 PM	35	173	204	181	34	190	212	202	170	161	171	179	0	
1:25:12 PM	35	173	204	181	34	190	212	202	170	161	171	179	0	
1:25:12 PM	35	174	204	181	34	190	212	202	170	161	171	179	0	
1:25:12 PM	35	174	204	181	34	190	212	202	170	161	171	179	0	
1:25:12 PM	35	173	204	181	34	190	212	202	170	161	171	179	0	
1:25:12 PM	35	173	204	181	34	190	212	202	170	161	171	179	0	
1:25:12 PM	35	173	204	181	34	190	212	202	170	161	171	179	0	
1:25:12 PM	35	173	204	181	34	190	212	202	170	161	171	179	0	
1:25:12 PM	35	173	204	181	34	190	212	202	170	161	171	179	0	
1:25:12 PM	35	173	204	181	34	190	212	202	170	161	171	179	0	
1:25:12 PM	35	173	204	181	34	190	212	202	170	161	171	179	0	
1:25:12 PM	35	173	204	181	34	190	212	202	170	161	171	179	0	
1:25:12 PM	35	173	204	181	34	190	212	202	170	161	171	179	0	
1:25:12 PM	35	173	204	181	34	190	212	202	171	162	172	179	0	
1:25:12 PM	35	174	204	180	34	190	212	203	173	164	174	181	0	
1:25:12 PM	37	176	205	178	35	191	212	206	176	167	177	183	0	
1:25:12 PM	40	180	206	175	35	194	213	208	178	169	178	185	0	
1:25:12 PM	42	183	206	173	36	195	214	208	178	169	179	185	0	
1:25:12 PM	42	183	206	172	37	196	214	207	178	169	178	185	0	
1:25:12 PM	41	182	206	173	36	195	214	206	176	167	177	183	0	
1:25:12 PM	39	179	206	176	35	193	213	203	173	164	173	180	0	
1:25:12 PM	36	175	204	179	35	191	212	202	171	162	171	179	0	
1:25:12 PM	35	173	204	181	34	190	212	202	170	161	171	179	0	
1:25:12 PM	35	173	204	181	34	189	212	202	170	161	171	179	0	
1:25:12 PM	35	173	204	181	34	189	212	202	170	161	171	179	0	
1:25:12 PM	35	173	204	181	34	190	212	202	170	161	171	179	0	
1:25:12 PM	35	173	204	181	34	190	212	202	170	161	171	179	0	
1:25:12 PM	35	173	204	181	34	190	212	202	170	161	171	179	0	
1:25:12 PM	35	173	204	181	34	189	212	202	170	161	171	179	0	
1:25:12 PM	35	173	204	181	34	189	212	202	169	161	170	178	0	
1:25:12 PM	35	173	204	181	34	189	212	203	171	160	168	176	0	
1:25:12 PM	33	171	204	183	33	188	214	213	193	179	179	185	0	
1:25:12 PM	38	181	208	176	33	196	220	222	223	217	212	211	0	
1:25:12 PM	56	209	219	153	37	215	220	197	201	216	222	223	0	
1:25:12 PM	65	222	223	141	39	222	201	153	146	174	193	204	0	
1:25:12 PM	53	200	213	158	39	206	178	156	138	150	169	183	0	
1:25:12 PM	38	176	204	178	35	189	185	189	162	155	167	178	0	
1:25:12 PM	34	171	203	182	34	186	206	201	170	161	169	179	0	
1:25:12 PM	35	173	204	181	34	187	212	202	170	161	169	179	0	
1:25:12 PM	35	173	204	181	34	188	212	202	170	161	169	179	0	
1:25:12 PM	35	173	204	181	34	187	212	202	170	161	169	179	0	
1:25:12 PM	35	173	204	181	34	187	212	202	170	161	169	179	0	
1:25:12 PM	35	173	204	181	34	188	212	202	170	161	169	179	0	
1:25:12 PM	35	173	204	181	34	188	212	202	170	161	169	179	0	
1:25:12 PM	35	173	204	181	34	188	212	202	170	161	169	179	0	
1:25:12 PM	35	173	204	181	34	188	212	202	170	161	169	179	0	
1:25:12 PM	35	173	204	181	34	188	212	202	170	161	169	179	0	
1:25:12 PM	35	173	204	181	34	188	212	202	170	161	169	179	0	
1:25:12 PM	35	173	204	181	34	188	212	202	170	161	169	179	0	
1:25:12 PM	35	173	204	181	34	188	212	202	171	162	169	179	0	
1:25:12 PM	35	174	204	181	34	188	212	203	174	164	170	180	0	
1:25:12 PM	36	175	204	179	35	189	212	205	179	168	172	182	0	
1:25:12 PM	39	178	205	177	35	191	213	207	185	172	174	184	0	
1:25:12 PM	41	182	206	174	36	193	214	211	190	178	178	186	0	
1:25:12 PM	44	185	207	171	37	195	215	214	196	182	181	188	0	
1:25:12 PM	46	188	208	168	38	197	216	217	199	186	184	190	0	
1:25:12 PM	47	191	209	166	38	199	216	218	202	188	185	191	0	
1:25:12 PM	49	192	209	164	38	200	216	218	203	189	185	192	0	
1:25:12 PM	50	193	209	164	39	200	217	218	203	189	186	191	0	
1:25:12 PM	50	193	209	164	39	200	217	218	200	187	185	191	0	
1:25:12 PM	49	192	209	165	39	199	217	217	196	183	184	190	0	
1:25:12 PM	47	190	209	167	38	198	216	215	191	178	182	188	0	
1:25:12 PM	44	187	208	169	37	196	215	211	185	173	178	185	0	
1:25:12 PM	41	182	207	173	36	194	214	207	178	167	174	183	0	
1:25:12 PM	38	178	206	177	35	191	213	203	172	163	171	180	0	
1:25:12 PM	36	175	204	180	34	189	212	202	171	161	169	179	0	
1:25:12 PM	35	174	204	181	34	188	212	202	170	161	169	179	0	
1:25:12 PM	35	173	204	181	34	188	212	202	170	161	169	179	0	
1:25:12 PM	35	173	204	181	34	187	212	202	170	161	169	179	0	
1:25:12 PM	35	173	204	181	34	188	212	202	170	161	169	179	0	
1:25:12 PM	35	173	204	181	34	188	212	202	170	161	169	179	0	
1:25:12 PM	35	173	204	181	34	187	212	202	170	161	169	179	0	
1:25:12 PM	35	173	204	181	34	188	212	202	170	161	169	179	0	
1:25:12 PM	35	173	204	181	34	188	212	202	170	161	169	179	0	
1:25:12 PM	35	173	204	181	34	188	212	202	170	161	169	179	0	
1:25:12 PM	35	173	204	181	34	188	212	202	170	161	169	179	0	
1:25:12 PM	35	173	204	181	34	188	212	202	170	161	169	179	0	
1:25:12 PM	35	173	204	181	34	188	212	202	170	161	169	179	0	
1:25:12 PM	35	173	204	181	34	188	212	202	170	161	169	179	0	
1:25:12 PM	35	173	204	181	34	188	212	202	170	161	169	179	0	
1:25:12 PM	35	173	204	181	34	187	212	202	170	161	169	179	0	
1:25:12 PM	35	173	204	181	34	188	212	202	170	161	169	179	0	
1:25:12 PM	35	173	204	181	34	188	212	202	170	161	169	179	0	
1:25:12 PM	35	173	204	181	34	188	212	202	170	161	169	179	0	
1:25:12 PM	35	173	204	181	34	188	212	202	170	161	169	179	0	
1:25:12 PM	35	173	204	181	34	188	212	202	170	161	169	179	0	
1:25:12 PM	35	173	204	181	34	188	212	202	170	161	169	179	0	
1:25:12 PM	35	173	204	181	34	188	212	202	170	161	169	179	0	
1:25:12 PM	35	173	204	181	34	188	212	202	170	162	170	179	0	
1:25:12 PM	35	174	204	181	34	188	212	203	173	164	172	180	0	
1:25:12 PM	37	176	205	179	35	189	212	206	176	167	175	183	0	
1:25:12 PM	40	180	206	175	35	192	213	208	178	169	176	185	0	
1:25:12 PM	42	182	206	173	36	193	214	208	178	169	177	185	0	
1:25:12 PM	42	183	206	172	37	194	214	207	178	169	176	185	0	
1:25:12 PM	41	182	206	173	36	193	214	206	176	167	175	183	0	
1:25:12 PM	39	179	206	176	35	192	213	203	173	164	172	181	0	
1:25:12 PM	37	176	204	179	35	189	212	202	171	162	169	179	0	
1:25:12 PM	35	174	204	180	34	188	212	202	170	161	169	179	0	
1:25:12 PM	35	173	204	181	34	188	212	202	170	161	169	179	0	
1:25:12 PM	35	173	204	181	34	188	212	202	170	161	169	179	0	
1:25:12 PM	35	173	204	181	34	188	212	202	170	161	169	179	0	
1:25:13 PM	35	173	204	181	34	188	212	202	170	161	169	179	0	
1:25:13 PM	35	173	204	181	34	188	212	202	170	161	169	179	0	
1:25:13 PM	35	173	204	181	34	188	212	202	170	161	169	179	0	
1:25:13 PM	35	173	204	181	34	188	212	202	170	161	168	179	0	
1:25:13 PM	35	173	204	181	34	187	212	203	170	160	166	176	0	
1:25:13 PM	33	171	204	183	33	186	214	212	191	177	176	183	0	
1:25:13 PM	37	179	208	177	33	193	219	222	222	214	208	209	0	
1:25:13 PM	54	207	218	154	36	212	220	200	205	218	222	222	0	
1:25:13 PM	65	223	223	141	39	222	203	155	149	177	196	204	0	
1:25:13 PM	54	203	214	156	39	207	178	154	137	151	170	182	0	
1:25:13 PM	39	178	205	177	35	190	183	187	161	155	167	176	0	
1:25:13 PM	34	171	203	183	34	186	205	201	170	161	169	177	0	
1:25:13 PM	35	173	204	181	34	187	212	202	170	161	169	177	0	
1:25:13 PM	35	173	204	181	34	188	212	202	170	161	169	177	0	
1:25:13 PM	35	173	204	181	34	188	212	202	170	161	169	177	0	
1:25:13 PM	35	173	204	181	34	188	212	202	170	161	169	177	0	
1:25:13 PM	35	173	204	181	34	188	212	202	170	161	169	177	0	
1:25:13 PM	35	173	204	181	34	188	212	202	170	161	169	177	0	
1:25:13 PM	35	173	204	181	34	188	212	202	170	161	169	177	0	
1:25:13 PM	35	173	204	181	34	188	212	202	170	161	169	177	0	
1:25:13 PM	35	173	204	181	34	188	212	202	170	161	169	177	0	
1:25:13 PM	35	173	204	181	34	188	212	202	170	161	169	177	0	
1:25:13 PM	35	173	204	181	34	188	212	202	170	161	169	177	0	
1:25:13 PM	35	173	204	181	34	188	212	202	171	161	169	177	0	
1:25:13 PM	35	174	204	181	34	188	212	202	173	163	170	178	0	
1:25:13 PM	36	175	204	179	35	189	212	204	179	167	171	180	0	
1:25:13 PM	38	178	205	177	35	190	213	207	184	172	174	182	0	
1:25:13 PM	41	181	206	174	36	193	214	210	190	177	177	184	0	
1:25:13 PM	44	185	207	171	37	195	215	214	195	182	181	186	0	
1:25:13 PM	46	188	208	168	38	197	216	216	199	185	183	188	0	
1:25:13 PM	47	191	209	166	38	199	216	218	202	188	185	189	0	
1:25:13 PM	49	192	209	165	38	200	216	218	203	189	185	190	0	
1:25:13 PM	49	193	209	164	39	200	217	218	203	189	186	189	0	
1:25:13 PM	49	193	209	164	39	200	217	218	201	187	186	189	0	
1:25:13 PM	49	192	209	165	39	199	217	217	196	184	184	188	0	
1:25:13 PM	47	190	209	166	38	198	216	215	191	179	182	186	0	
1:25:13 PM	45	187	208	169	37	196	215	211	185	173	179	184	0	
1:25:13 PM	41	183	207	173	36	194	214	207	178	167	175	181	0	
1:25:13 PM	38	178	206	177	35	191	213	204	173	163	171	178	0	
1:25:13 PM	36	175	204	179	34	189	212	202	171	161	169	177	0	
1:25:13 PM	35	174	204	181	34	188	212	202	170	161	169	177	0	
1:25:13 PM	35	173	204	181	34	188	212	202	170	161	169	177	0	
1:25:13 PM	35	173	204	181	34	188	212	202	170	161	169	177	0	
1:25:13 PM	35	173	204	181	34	188	212	202	170	161	169	177	0	
1:25:13 PM	35	173	204	181	34	188	212	202	170	161	169	177	0	
1:25:13 PM	35	173	204	181	34	188	212	202	170	161	169	177	0	
1:25:13 PM	35	173	204	181	34	188	212	202	170	161	169	177	0	
1:25:13 PM	35	173	204	181	34	188	212	202	170	161	169	177	0	
1:25:13 PM	35	173	204	181	34	188	212	202	170	161	169	177	0	
1:25:13 PM	35	173	204	181	34	188	212	202	170	161	169	177	0	
1:25:13 PM	35	173	204	181	34	188	212	202	170	161	169	177	0	
1:25:13 PM	35	173	204	181	34	188	212	202	170	161	169	177	0	
1:25:13 PM	35	173	204	181	34	188	212	202	170	161	169	177	0	
1:25:13 PM	35	173	204	181	34	188	212	202	170	161	169	177	0	
1:25:13 PM	35	173	204	181	34	188	212	202	170	161	169	177	0	
1:25:13 PM	35	173	204	181	34	188	212	202	170	161	169	177	0	
1:25:13 PM	35	173	204	181	34	188	212	202	170	161	169	177	0	
1:25:13 PM	35	173	204	181	34	188	212	202	170	161	169	177	0	
1:25:13 PM	35	173	204	181	34	188	212	202	170	161	169	177	0	
1:25:13 PM	35	173	204	181	34	188	212	202	170	161	169	177	0	
1:25:13 PM	35	173	204	181	34	188	212	202	170	161	169	177	0	
1:25:13 PM	35	173	204	181	34	188	212	202	170	161	169	177	0	
1:25:13 PM	35	173	204	181	34	188	212	202	170	162	169	177	0	
1:25:13 PM	35	174	204	181	34	188	212	203	173	164	172	178	0	
1:25:13 PM	37	176	205	179	35	189	212	206	176	167	175	181	0	
1:25:13 PM	39	179	206	176	35	192	213	207	178	169	176	183	0	
1:25:13 PM	42	182	206	173	36	193	214	208	178	169	177	183	0	
1:25:13 PM	43	183	206	172	37	194	214	208	178	169	176	183	0	
1:25:13 PM	41	182	206	173	36	193	214	206	177	167	175	181	0	
1:25:13 PM	39	180	206	176	35	192	213	203	173	164	172	179	0	
1:25:13 PM	37	176	205	179	35	189	212	202	171	162	170	177	0	
1:25:13 PM	35	174	204	181	34	188	212	202	170	161	169	177	0	
1:25:13 PM	35	173	204	181	34	188	212	202	170	161	169	177	0	
1:25:13 PM	35	173	204	181	34	188	212	202	170	161	169	177	0	
1:25:13 PM	35	173	204	181	34	188	212	202	170	161	169	177	0	
1:25:13 PM	35	173	204	181	34	188	212	202	170	161	169	177	0	
1:25:13 PM	35	173	204	181	34	188	212	202	170	161	169	177	0	
1:25:13 PM	35	173	204	181	34	188	212	202	170	161	169	177	0	
1:25:13 PM	35	173	204	181	34	188	212	202	170	161	169	177	0	
1:25:13 PM	35	173	204	181	34	187	212	202	170	160	166	174	0	
1:25:13 PM	33	171	204	183	33	187	214	211	189	175	174	180	0	
1:25:13 PM	36	178	207	178	33	192	219	223	221	212	206	205	0	
1:25:13 PM	53	205	218	156	36	210	221	203	208	219	222	222	0	
1:25:13 PM	65	223	223	141	39	222	205	157	152	180	198	206	0	
1:25:13 PM	56	205	215	155	39	209	179	152	136	151	171	183	0	
1:25:13 PM	39	179	205	176	36	191	182	185	159	154	166	176	0	
1:25:13 PM	34	171	203	183	34	186	204	201	170	161	169	177	0	
1:25:13 PM	35	173	204	181	34	187	212	202	170	161	169	177	0	
1:25:13 PM	35	173	204	181	34	188	212	202	170	161	169	177	0	
1:25:13 PM	35	173	204	181	34	188	212	202	170	161	169	177	0	
1:25:13 PM	35	173	204	181	34	188	212	202	170	161	169	177	0	
1:25:13 PM	35	173	204	181	34	188	212	202	170	161	169	177	0	
1:25:13 PM	35	173	204	181	34	188	212	202	170	161	169	177	0	
1:25:13 PM	35	173	204	181	34	188	212	202	170	161	169	177	0	
1:25:13 PM	35	173	204	181	34	188	212	202	170	161	169	177	0	
1:25:13 PM	35	173	204	181	34	188	212	202	170	161	169	177	0	
1:25:13 PM	35	173	204	181	34	188	212	202	170	161	169	177	0	
1:25:13 PM	35	173	204	181	34	188	212	202	170	161	169	177	0	
1:25:13 PM	35	173	204	181	34	188	212	202	171	161	169	177	0	
1:25:13 PM	35	174	204	181	34	188	212	202	173	163	169	178	0	
1:25:14 PM	36	175	204	180	34	188	212	204	178	167	171	180	0	
1:25:14 PM	38	178	205	177	35	190	213	207	184	172	174	182	0	
1:25:14 PM	41	181	206	174	36	193	214	210	190	177	177	184	0	
1:25:14 PM	43	185	207	171	37	195	215	213	195	182	180	186	0	
1:25:14 PM	46	188	208	168	37	197	216	216	199	185	183	188	0	
1:25:14 PM	47	191	209	166	38	199	216	218	202	188	185	189	0	
1:25:14 PM	49	192	209	165	38	200	216	218	203	189	185	190	0	
1:25:14 PM	49	193	209	164	39	200	217	218	203	189	186	190	0	
1:25:14 PM	50	193	209	164	39	200	217	218	201	187	186	189	0	
1:25:14 PM	49	192	209	165	39	199	217	217	197	184	184	188	0	
1:25:14 PM	47	190	209	166	38	198	216	215	192	179	182	186	0	
1:25:14 PM	45	187	208	169	37	197	215	211	186	174	179	184	0	
1:25:14 PM	42	183	207	173	36	194	214	207	179	168	175	181	0	
1:25:14 PM	39	179	206	176	35	191	213	204	173	163	171	179	0	
1:25:14 PM	36	175	205	179	34	189	212	202	170	161	169	177	0	
1:25:14 PM	35	174	204	181	34	188	212	202	170	161	169	177	0	
1:25:14 PM	35	173	204	181	34	188	212	202	170	161	169	177	0	
1:25:14 PM	35	173	204	181	34	188	212	202	170	161	169	177	0	
1:25:14 PM	35	173	204	181	34	188	212	202	170	161	169	177	0	
1:25:14 PM	35	173	204	181	34	188	212	202	170	161	169	177	0	
1:25:14 PM	35	173	204	181	34	188	212	202	170	161	169	177	0	
1:25:14 PM	35	173	204	181	34	188	212	202	170	161	169	177	0	
1:25:14 PM	35	173	204	181	34	188	212	202	170	161	169	177	0	
1:25:14 PM	35	173	204	181	34	188	212	202	170	161	169	177	0	
1:25:14 PM	35	173	204	181	34	188	212	202	170	161	169	177	0	
1:25:14 PM	35	173	204	181	34	188	212	202	170	161	169	177	0	
1:25:14 PM	35	173	204	181	34	188	212	202	170	161	169	177	0	
1:25:14 PM	35	173	204	181	34	188	212	202	170	161	169	177	0	
1:25:14 PM	35	173	204	181	34	188	212	202	170	161	169	177	0	
1:25:14 PM	35	173	204	181	34	188	212	202	170	161	169	177	0	
1:25:14 PM	35	173	204	181	34	188	212	202	170	161	169	177	0	
1:25:14 PM	35	173	204	181	34	188	212	202	170	161	169	177	0	
1:25:14 PM	35	173	204	181	34	188	212	202	170	161	169	177	0	
1:25:14 PM	35	173	204	181	34	188	212	202	170	161	169	177	0	
1:25:14 PM	35	173	204	181	34	188	212	202	170	161	169	177	0	
1:25:14 PM	35	173	204	181	34	188	212	202	170	161	169	177	0	
1:25:14 PM	35	173	204	181	34	188	212	202	170	161	169	177	0	
1:25:14 PM	35	173	204	181	34	188	212	202	170	162	169	177	0	
1:25:14 PM	35	174	204	181	34	188	212	203	172	164	171	178	0	
1:25:14 PM	36	175	204	179	34	189	212	205	176	167	174	181	0	
1:25:14 PM	39	179	206	176	35	191	213	207	178	168	176	183	0	
1:25:14 PM	41	182	206	173	36	193	214	208	178	169	177	183	0	
1:25:14 PM	42	183	206	172	37	194	214	208	178	169	176	183	0	
1:25:14 PM	42	182	206	173	36	193	214	206	177	167	175	182	0	
1:25:14 PM	39	180	206	175	35	192	213	204	174	164	172	179	0	
1:25:14 PM	37	176	205	179	35	189	212	202	171	162	170	177	0	
1:25:14 PM	35	174	204	180	34	188	212	202	170	161	169	177	0	
1:25:14 PM	35	173	204	181	34	188	212	202	170	161	169	177	0	
1:25:14 PM	35	173	204	181	34	188	212	202	170	161	169	177	0	
1:25:14 PM	35	173	204	181	34	188	212	202	170	161	169	177	0	
1:25:14 PM	35	173	204	181	34	188	212	202	170	161	169	177	0	
1:25:14 PM	35	173	204	181	34	188	212	202	170	161	169	177	0	
1:25:14 PM	35	173	204	181	34	188	212	202	170	161	169	177	0	
1:25:14 PM	35	173	204	181	34	188	212	202	170	161	169	177	0	
1:25:14 PM	35	173	204	181	34	187	212	202	169	159	166	174	0	
1:25:14 PM	33	171	204	183	33	187	213	210	186	173	173	179	0	
1:25:14 PM	36	177	207	179	33	191	218	223	219	210	203	203	0	
1:25:14 PM	51	203	217	158	36	209	221	206	211	221	222	221	0	
1:25:14 PM	65	223	223	141	39	222	206	160	156	184	201	208	0	
1:25:14 PM	57	207	216	153	39	211	180	150	135	152	173	184	0	
1:25:14 PM	40	180	205	175	36	192	181	182	158	153	166	176	0	
1:25:14 PM	34	171	203	183	34	186	202	200	169	161	168	177	0	
1:25:14 PM	35	173	203	181	34	187	212	202	170	161	169	177	0	
1:25:14 PM	35	173	204	181	34	188	212	202	170	161	169	177	0	
1:25:14 PM	35	173	204	181	34	188	212	202	170	161	169	177	0	
1:25:14 PM	35	173	204	181	34	188	212	202	170	161	169	177	0	
1:25:14 PM	35	173	204	181	34	188	212	202	170	161	169	177	0	
1:25:14 PM	35	173	204	181	34	188	212	202	170	161	169	177	0	
1:25:14 PM	35	173	204	181	34	187	212	202	170	161	169	177	0	
1:25:14 PM	35	173	204	181	34	188	212	202	170	161	169	177	0	
1:25:14 PM	35	173	204	181	34	188	212	202	170	161	169	177	0	
1:25:14 PM	35	173	204	181	34	188	212	202	170	161	169	177	0	
1:25:14 PM	35	173	204	181	34	188	212	202	170	161	169	177	0	
1:25:14 PM	35	173	204	181	34	188	212	202	170	161	169	177	0	
1:25:14 PM	35	173	204	181	34	188	212	202	173	163	169	178	0	
1:25:14 PM	36	175	204	180	35	188	212	204	178	167	171	179	0	
1:25:14 PM	38	177	205	177	35	190	213	207	183	171	174	182	0	
1:25:14 PM	41	181	206	174	36	192	214	210	189	177	177	184	0	
1:25:14 PM	43	184	207	171	37	195	215	213	194	181	180	186	0	
1:25:14 PM	46	188	208	168	38	197	216	216	198	185	183	188	0	
1:25:14 PM	47	190	209	166	38	198	216	218	201	187	185	189	0	
1:25:14 PM	49	192	209	165	38	200	216	218	203	189	185	190	0	
1:25:14 PM	49	193	209	164	39	200	217	218	203	189	186	190	0	
1:25:14 PM	50	193	209	164	39	200	217	218	201	188	186	189	0	
1:25:14 PM	49	192	209	164	39	199	217	217	197	184	185	188	0	
1:25:14 PM	48	191	209	166	38	199	216	215	192	179	182	187	0	
1:25:14 PM	45	187	208	169	37	197	215	212	186	174	179	184	0	
1:25:14 PM	42	183	207	172	36	194	214	208	179	168	175	181	0	
1:25:14 PM	39	179	206	176	35	191	213	204	173	163	171	179	0	
1:25:14 PM	36	175	205	179	34	189	212	202	171	161	169	177	0	
1:25:14 PM	35	174	204	181	34	188	212	202	170	161	169	177	0	
1:25:14 PM	35	173	204	181	34	188	212	202	170	161	169	177	0	
1:25:14 PM	35	173	204	181	34	188	212	202	170	161	169	177	0	
1:25:14 PM	35	173	204	181	34	188	212	202	170	161	169	177	0	
1:25:14 PM	35	173	204	181	34	188	212	202	170	161	169	177	0	
1:25:14 PM	35	173	204	181	34	188	212	202	170	161	169	177	0	
1:25:14 PM	35	173	204	181	34	188	212	202	170	161	169	177	0	
1:25:14 PM	35	173	204	181	34	188	212	202	170	161	169	177	0	
1:25:14 PM	35	173	204	181	34	188	212	202	170	161	169	177	0	
1:25:14 PM	35	173	204	181	34	188	212	202	170	161	169	177	0	
1:25:15 PM	35	173	204	181	34	188	212	202	170	161	169	177	0	
1:25:15 PM	35	173	204	181	34	187	212	202	170	161	169	177	0	
1:25:15 PM	35	173	204	181	34	188	212	202	170	161	169	177	0	
1:25:15 PM	35	173	204	181	34	188	212	202	170	161	169	177	0	
1:25:15 PM	35	173	204	181	34	188	212	202	170	161	169	177	0	
1:25:15 PM	35	173	204	181	34	188	212	202	170	161	169	177	0	
1:25:15 PM	35	173	204	181	34	188	212	202	170	161	169	177	0	
1:25:15 PM	35	173	204	181	34	188	212	202	170	161	169	177	0	
1:25:15 PM	35	173	204	181	34	188	212	202	170	161	169	177	0	
1:25:15 PM	35	173	204	181	34	188	212	202	170	161	169	177	0	
1:25:15 PM	35	173	204	181	34	188	212	202	170	161	169	177	0	
1:25:15 PM	35	173	204	181	34	187	212	202	170	161	169	177	0	
1:25:15 PM	35	173	204	181	34	187	212	202	170	162	169	177	0	
1:25:15 PM	35	173	204	181	34	188	212	203	172	163	171	178	0	
1:25:15 PM	36	175	204	179	34	189	212	205	176	167	174	180	0	
1:25:15 PM	39	179	205	176	35	191	213	207	178	168	176	183	0	
1:25:15 PM	41	182	206	173	36	193	214	208	178	169	177	183	0	
1:25:15 PM	42	183	206	172	37	194	214	208	178	169	176	183	0	
1:25:15 PM	42	183	206	173	36	193	214	206	177	168	175	182	0	
1:25:15 PM	40	180	206	175	35	192	213	204	174	165	172	179	0	
1:25:15 PM	37	176	205	178	35	189	212	202	171	162	170	177	0	
1:25:15 PM	35	174	204	180	34	188	212	202	170	161	169	177	0	
1:25:15 PM	35	173	204	181	34	188	212	202	170	161	169	177	0	
1:25:15 PM	35	173	204	181	34	188	212	202	170	161	169	177	0	
1:25:15 PM	35	173	204	181	34	188	212	202	170	161	169	177	0	
1:25:15 PM	35	173	204	181	34	188	212	202	170	161	169	177	0	
1:25:15 PM	35	173	204	181	34	188	212	202	170	161	169	177	0	
1:25:15 PM	35	173	204	181	34	188	212	202	170	161	169	177	0	
1:25:15 PM	35	173	204	181	34	188	212	202	170	161	169	177	0	
1:25:15 PM	35	173	204	181	34	187	212	202	169	159	166	174	0	
1:25:15 PM	33	171	204	183	33	187	213	209	185	171	172	178	0	
1:25:15 PM	35	176	206	179	33	190	218	222	217	207	200	201	0	
1:25:15 PM	50	200	216	160	35	207	222	209	213	221	222	221	0	
1:25:15 PM	64	222	223	142	39	222	208	163	160	187	204	210	0	
1:25:15 PM	58	210	217	151	39	212	182	149	135	153	174	186	0	
1:25:15 PM	41	182	206	174	36	193	180	180	156	152	166	176	0	
1:25:15 PM	34	171	203	182	34	186	201	200	169	160	168	177	0	
1:25:15 PM	35	173	203	181	34	187	211	202	170	161	169	177	0	
1:25:15 PM	35	173	204	181	34	188	212	202	170	161	169	177	0	
1:25:15 PM	35	173	204	181	34	188	212	202	170	161	169	177	0	
1:25:15 PM	35	173	204	181	34	188	212	202	170	161	169	177	0	
1:25:15 PM	35	173	204	181	34	188	212	202	170	161	169	177	0	
1:25:15 PM	35	173	204	181	34	188	212	202	170	161	169	177	0	
1:25:15 PM	35	173	204	181	34	188	212	202	170	161	169	177	0	
1:25:15 PM	35	173	204	181	34	188	212	202	170	161	169	177	0	
1:25:15 PM	35	173	204	181	34	188	212	202	170	161	169	177	0	
1:25:15 PM	35	173	204	181	34	188	212	202	170	161	169	177	0	
1:25:15 PM	35	173	204	181	34	188	212	202	170	161	169	177	0	
1:25:15 PM	35	173	204	181	34	188	212	202	170	161	169	177	0	
1:25:15 PM	35	173	204	181	34	188	212	202	173	163	169	178	0	
1:25:15 PM	36	174	204	180	34	188	212	204	177	166	171	179	0	
1:25:15 PM	38	177	205	178	35	190	213	206	183	171	173	182	0	
1:25:15 PM	40	181	206	174	36	192	214	209	189	176	176	184	0	
1:25:15 PM	43	184	207	171	37	194	215	213	194	181	180	186	0	
1:25:15 PM	45	187	208	169	37	196	215	216	198	185	183	188	0	
1:25:15 PM	47	190	209	166	38	198	216	218	201	187	185	189	0	
1:25:15 PM	48	192	209	165	38	199	216	218	203	189	185	190	0	
1:25:15 PM	49	193	209	164	39	200	217	218	203	189	186	190	0	
1:25:15 PM	50	193	209	164	39	200	217	218	201	188	186	189	0	
1:25:15 PM	49	192	209	164	39	199	217	217	197	185	185	188	0	
1:25:15 PM	48	191	209	166	38	199	216	215	192	180	183	187	0	
1:25:15 PM	45	188	208	168	37	197	215	212	186	175	179	184	0	
1:25:15 PM	42	184	207	172	36	194	214	208	180	169	175	181	0	
1:25:15 PM	39	179	206	176	35	191	213	204	174	163	172	179	0	
1:25:15 PM	37	176	205	179	34	189	212	202	171	161	169	177	0	
1:25:15 PM	35	174	204	180	34	188	212	202	170	161	169	177	0	
1:25:15 PM	35	173	204	181	34	188	212	202	170	161	169	177	0	
1:25:15 PM	35	173	204	181	34	188	212	202	170	161	169	177	0	
1:25:15 PM	35	173	204	181	34	187	212	202	170	161	169	177	0	
1:25:15 PM	35	173	204	181	34	188	212	202	170	161	169	177	0	
1:25:15 PM	35	173	204	181	34	188	212	202	170	161	169	177	0	
1:25:15 PM	35	173	204	181	34	188	212	202	170	161	169	177	0	
1:25:15 PM	35	173	204	181	34	188	212	202	170	161	169	177	0	
1:25:15 PM	35	173	204	181	34	188	212	202	170	161	169	177	0	
1:25:15 PM	35	173	204	181	34	188	212	202	170	161	169	177	0	
1:25:15 PM	35	173	204	181	34	188	212	202	170	161	169	177	0	
1:25:15 PM	35	173	204	181	34	188	212	202	170	161	169	177	0	
1:25:15 PM	35	173	204	181	34	188	212	202	170	161	169	177	0	
1:25:15 PM	35	173	204	181	34	188	212	202	170	161	169	177	0	
1:25:15 PM	35	173	204	181	34	188	212	202	170	161	169	177	0	
1:25:15 PM	35	173	204	181	34	188	212	202	170	161	169	177	0	
1:25:15 PM	35	173	204	181	34	188	212	202	170	161	169	177	0	
1:25:15 PM	35	173	204	181	34	188	212	202	170	161	169	177	0	
1:25:15 PM	35	173	204	181	34	188	212	202	170	161	169	177	0	
1:25:15 PM	35	173	204	181	34	188	212	202	170	161	169	177	0	
1:25:15 PM	35	173	204	181	34	187	212	202	170	161	169	177	0	
1:25:15 PM	35	173	204	181	34	188	212	202	170	161	169	177	0	
1:25:15 PM	35	173	204	181	34	187	212	202	170	161	169	177	0	
1:25:15 PM	35	173	204	181	34	188	212	203	172	163	171	178	0	
1:25:15 PM	36	175	204	179	34	189	212	205	175	166	174	180	0	
1:25:15 PM	39	179	205	176	35	191	213	207	177	168	176	182	0	
1:25:15 PM	41	182	206	173	36	193	214	208	178	169	177	183	0	
1:25:15 PM	42	183	206	172	37	194	214	208	178	169	177	183	0	
1:25:15 PM	42	183	206	173	36	193	214	206	177	168	176	182	0	
1:25:15 PM	40	180	206	175	35	192	213	204	174	165	173	179	0	
1:25:15 PM	37	176	205	178	35	190	212	202	171	162	170	177	0	
1:25:15 PM	36	174	204	180	34	188	212	202	170	161	169	177	0	
1:25:15 PM	35	173	204	181	34	188	212	202	170	161	169	177	0	
1:25:15 PM	35	173	204	181	34	188	212	202	170	161	169	177	0	
1:25:15 PM	35	173	204	181	34	188	212	202	170	161	169	177	0	
1:25:16 PM	35	173	204	181	34	188	212	202	170	161	169	177	0	
1:25:16 PM	35	173	204	181	34	188	212	202	170	161	169	177	0	
1:25:16 PM	35	173	204	181	34	188	212	202	170	161	169	177	0	
1:25:16 PM	35	173	204	181	34	188	212	202	170	161	169	177	0	
1:25:16 PM	35	173	204	181	34	187	212	202	169	159	166	174	0	
1:25:16 PM	33	171	204	183	33	187	213	208	183	169	171	177	0	
1:25:16 PM	35	175	206	180	33	190	217	222	215	204	198	198	0	
1:25:16 PM	48	198	215	162	35	205	222	211	215	222	222	221	0	
1:25:16 PM	64	222	223	142	39	221	210	166	164	191	206	212	0	
1:25:16 PM	59	212	218	150	39	214	183	148	135	155	176	187	0	
1:25:16 PM	42	183	207	172	36	194	179	178	154	151	166	176	0	
1:25:16 PM	34	171	203	182	34	186	199	199	169	160	168	177	0	
1:25:16 PM	35	173	203	181	34	187	211	202	170	161	169	177	0	
1:25:16 PM	35	173	204	181	34	188	212	202	170	161	169	177	0	
1:25:16 PM	35	173	204	181	34	188	212	202	170	161	169	177	0	
1:25:16 PM	35	173	204	181	34	188	212	202	170	161	169	177	0	
1:25:16 PM	35	173	204	181	34	188	212	202	170	161	169	177	0	
1:25:16 PM	35	173	204	181	34	188	212	202	170	161	169	177	0	
1:25:16 PM	35	173	204	181	34	187	212	202	170	161	169	177	0	
1:25:16 PM	35	173	204	181	34	187	212	202	170	161	169	177	0	
1:25:16 PM	35	173	204	181	34	188	212	202	170	161	169	177	0	
1:25:16 PM	35	173	204	181	34	188	212	202	170	161	169	177	0	
1:25:16 PM	35	173	204	181	34	188	212	202	170	161	169	177	0	
1:25:16 PM	35	173	204	181	34	188	212	202	170	161	169	177	0	
1:25:16 PM	35	173	204	181	34	188	212	202	172	163	169	178	0	
1:25:16 PM	36	174	204	180	34	188	212	204	177	166	171	179	0	
1:25:16 PM	38	177	205	178	35	190	213	206	182	171	173	181	0	
1:25:16 PM	40	180	206	175	36	192	214	209	188	176	176	184	0	
1:25:16 PM	43	184	207	172	37	194	214	213	194	181	180	186	0	
1:25:16 PM	45	187	207	169	37	196	215	216	198	184	183	188	0	
1:25:16 PM	47	190	209	167	38	198	216	218	201	187	185	189	0	
1:25:16 PM	48	192	209	165	38	199	216	218	203	189	185	189	0	
1:25:16 PM	49	193	209	164	39	200	217	218	203	189	185	190	0	
1:25:16 PM	50	193	209	164	39	200	217	218	202	188	186	189	0	
1:25:16 PM	49	192	209	164	39	199	217	217	198	185	185	188	0	
1:25:16 PM	48	191	209	166	38	199	216	215	193	180	183	187	0	
1:25:16 PM	45	188	208	168	37	197	215	212	187	175	180	184	0	
1:25:16 PM	42	184	207	172	36	195	214	208	180	169	176	182	0	
1:25:16 PM	39	180	206	175	35	192	213	205	174	164	172	179	0	
1:25:16 PM	37	176	205	179	34	189	212	202	171	162	169	178	0	
1:25:16 PM	35	174	204	180	34	188	212	202	170	161	169	177	0	
1:25:16 PM	35	173	204	181	34	188	212	202	170	161	169	177	0	
1:25:16 PM	35	173	204	181	34	188	212	202	170	161	169	177	0	
1:25:16 PM	35	173	204	181	34	188	212	202	170	161	169	177	0	
1:25:16 PM	35	173	204	181	34	188	212	202	170	161	169	177	0	
1:25:16 PM	35	173	204	181	34	188	212	202	170	161	169	177	0	
1:25:16 PM	35	173	204	181	34	188	212	202	170	161	169	177	0	
1:25:16 PM	35	173	204	181	34	188	212	202	170	161	169	177	0	
1:25:16 PM	35	173	204	181	34	188	212	202	170	161	169	177	0	
1:25:16 PM	35	173	204	181	34	188	212	202	170	161	169	177	0	
1:25:16 PM	35	173	204	181	34	188	212	202	170	161	169	177	0	
1:25:16 PM	35	173	204	181	34	188	212	202	170	161	169	177	0	
1:25:16 PM	35	173	204	181	34	188	212	202	170	161	169	177	0	
1:25:16 PM	35	173	204	181	34	188	212	202	170	161	169	177	0	
1:25:16 PM	35	173	204	181	34	188	212	202	170	161	169	177	0	
1:25:16 PM	35	173	204	181	34	188	212	202	170	161	169	177	0	
1:25:16 PM	35	173	204	181	34	188	212	202	170	161	169	177	0	
1:25:16 PM	35	173	204	181	34	188	212	202	170	161	169	177	0	
1:25:16 PM	35	173	204	181	34	188	212	202	170	161	169	177	0	
1:25:16 PM	35	173	204	181	34	188	212	202	170	161	169	177	0	
1:25:16 PM	35	173	204	181	34	188	212	202	170	161	169	177	0	
1:25:16 PM	35	173	204	181	34	188	212	202	170	161	169	177	0	
1:25:16 PM	35	173	204	181	34	188	212	202	170	161	169	177	0	
1:25:16 PM	35	173	204	181	34	188	212	203	172	163	171	178	0	
1:25:16 PM	36	175	204	180	34	189	212	205	175	166	174	180	0	
1:25:16 PM	38	178	205	177	35	191	213	207	177	168	176	182	0	
1:25:16 PM	41	182	206	174	36	193	214	208	178	169	177	183	0	
1:25:16 PM	42	183	206	172	37	194	214	208	178	169	177	183	0	
1:25:16 PM	42	183	206	173	36	193	214	207	177	168	176	182	0	
1:25:16 PM	40	181	206	175	35	192	213	204	174	165	173	179	0	
1:25:16 PM	37	177	205	178	35	190	212	202	172	162	170	178	0	
1:25:16 PM	36	174	204	180	34	188	212	202	170	161	169	177	0	
1:25:16 PM	35	173	204	181	34	188	212	202	170	161	169	177	0	
1:25:16 PM	35	173	204	181	34	188	212	202	170	161	169	177	0	
1:25:16 PM	35	173	204	181	34	188	212	202	170	161	169	177	0	
1:25:16 PM	35	173	204	181	34	188	212	202	170	161	169	177	0	
1:25:16 PM	35	173	204	181	34	188	212	202	170	161	169	177	0	
1:25:16 PM	35	173	204	181	34	188	212	202	170	161	169	177	0	
1:25:16 PM	35	173	204	181	34	188	212	202	170	161	169	177	0	
1:25:16 PM	35	173	204	181	34	188	212	202	169	159	167	175	0	
1:25:16 PM	33	172	204	182	33	187	212	207	181	167	170	176	0	
1:25:16 PM	34	174	206	181	33	189	217	221	213	201	195	196	0	
1:25:16 PM	47	195	214	164	35	204	222	213	217	222	221	220	0	
1:25:16 PM	64	221	223	143	39	221	211	169	168	195	209	214	0	
1:25:16 PM	60	214	219	148	39	215	185	148	135	156	177	189	0	
1:25:16 PM	43	185	207	171	36	195	178	175	152	151	166	176	0	
1:25:16 PM	35	171	202	182	35	186	198	198	168	160	168	177	0	
1:25:16 PM	35	172	203	181	34	187	211	202	170	161	169	177	0	
1:25:16 PM	35	173	204	181	34	188	212	202	170	161	169	177	0	
1:25:16 PM	35	173	204	181	34	188	212	202	170	161	169	177	0	
1:25:16 PM	35	173	204	181	34	188	212	202	170	161	169	177	0	
1:25:16 PM	35	173	204	181	34	188	212	202	170	161	169	177	0	
1:25:16 PM	35	173	204	181	34	188	212	202	170	161	169	177	0	
1:25:16 PM	35	173	204	181	34	188	212	202	170	161	169	177	0	
1:25:16 PM	35	173	204	181	34	188	212	202	170	161	169	177	0	
1:25:16 PM	35	173	204	181	34	188	212	202	170	161	169	177	0	
1:25:16 PM	35	173	204	181	34	188	212	202	170	161	169	177	0	
1:25:16 PM	35	173	204	181	34	188	212	202	170	161	169	177	0	
1:25:16 PM	35	173	204	181	34	188	212	202	170	161	169	177	0	
1:25:16 PM	35	173	204	181	34	188	212	202	172	162	169	177	0	
1:25:17 PM	36	174	204	180	34	188	212	203	176	165	170	179	0	
1:25:17 PM	38	177	205	178	35	190	212	206	182	170	173	181	0	
1:25:17 PM	40	180	205	175	36	192	213	209	188	175	176	183	0	
1:25:17 PM	43	184	206	172	37	194	214	212	193	180	179	186	0	
1:25:17 PM	45	187	207	169	37	196	215	215	198	184	183	187	0	
1:25:17 PM	47	190	208	167	38	198	216	217	201	187	185	189	0	
1:25:17 PM	48	192	209	165	38	199	216	218	203	189	185	189	0	
1:25:17 PM	49	193	209	164	39	200	217	218	203	189	185	190	0	
1:25:17 PM	50	193	209	164	39	200	217	218	202	188	186	189	0	
1:25:17 PM	49	192	209	164	39	200	217	217	198	185	185	188	0	
1:25:17 PM	48	191	209	165	38	199	216	216	193	180	183	187	0	
1:25:17 PM	46	188	208	168	37	197	215	213	188	176	180	184	0	
1:25:17 PM	43	184	207	171	36	195	214	209	181	170	176	182	0	
1:25:17 PM	40	180	206	175	35	192	213	205	174	164	172	179	0	
1:25:17 PM	37	176	205	178	35	190	212	202	171	162	170	178	0	
1:25:17 PM	35	174	204	180	34	188	212	202	170	161	169	177	0	
1:25:17 PM	35	173	204	181	34	188	212	202	170	161	169	177	0	
1:25:17 PM	35	173	204	181	34	188	212	202	170	161	169	177	0	
1:25:17 PM	35	173	204	181	34	188	212	202	170	161	169	177	0	
1:25:17 PM	35	174	204	181	34	188	212	202	170	161	169	177	0	
1:25:17 PM	35	174	204	181	34	188	212	202	170	161	169	177	0	
1:25:17 PM	35	173	204	181	34	188	212	202	170	161	169	177	0	
1:25:17 PM	35	173	204	181	34	188	212	202	170	161	169	177	0	
1:25:17 PM	35	173	204	181	34	188	212	202	170	161	169	177	0	
1:25:17 PM	35	173	204	181	34	188	212	202	170	161	169	177	0	
1:25:17 PM	35	173	204	181	34	188	212	202	170	161	169	177	0	
1:25:17 PM	35	173	204	181	34	188	212	202	170	161	169	177	0	
1:25:17 PM	35	173	204	181	34	188	212	202	170	161	169	177	0	
1:25:17 PM	35	174	204	181	34	188	212	202	170	161	169	177	0	
1:25:17 PM	35	174	204	181	34	188	212	202	170	161	169	177	0	
1:25:17 PM	35	174	204	181	34	188	212	202	170	161	169	177	0	
1:25:17 PM	35	173	204	181	34	188	212	202	170	161	169	177	0	
1:25:17 PM	35	173	204	181	34	188	212	202	170	161	169	177	0	
1:25:17 PM	35	173	204	181	34	188	212	202	170	161	169	177	0	
1:25:17 PM	35	173	204	181	34	188	212	202	170	161	169	177	0	
1:25:17 PM	35	173	204	181	34	188	212	202	170	161	169	177	0	
1:25:17 PM	35	174	204	181	34	188	212	202	170	161	169	177	0	
1:25:17 PM	35	173	204	181	34	188	212	202	170	161	169	177	0	
1:25:17 PM	35	173	204	181	34	188	212	203	172	163	171	178	0	
1:25:17 PM	36	175	204	180	34	188	212	205	175	166	174	180	0	
1:25:17 PM	38	178	205	177	35	191	213	207	177	168	176	182	0	
1:25:17 PM	41	182	206	174	36	193	214	208	178	169	177	183	0	
1:25:17 PM	42	183	206	172	37	194	214	208	178	169	177	183	0	
1:25:17 PM	42	183	206	173	36	193	214	207	177	168	176	182	0	
1:25:17 PM	40	181	206	174	36	192	213	204	175	165	173	180	0	
1:25:17 PM	38	177	205	178	35	190	212	202	172	162	170	178	0	
1:25:17 PM	36	174	204	180	34	188	212	202	170	161	169	177	0	
1:25:17 PM	35	173	204	181	34	188	212	202	170	161	169	177	0	
1:25:17 PM	35	173	204	181	34	188	212	202	170	161	169	177	0	
1:25:17 PM	35	173	204	181	34	188	212	202	170	161	169	177	0	
1:25:17 PM	35	173	204	181	34	188	212	202	170	161	169	177	0	
1:25:17 PM	35	173	204	181	34	188	212	202	170	161	169	177	0	
1:25:17 PM	35	173	204	181	34	188	212	202	170	161	169	177	0	
1:25:17 PM	35	173	204	181	34	188	212	202	170	161	169	177	0	
1:25:17 PM	35	173	204	181	34	188	212	202	169	159	167	175	0	
1:25:17 PM	34	172	204	182	34	187	212	207	179	166	168	175	0	
1:25:17 PM	34	174	205	181	33	188	217	220	210	198	192	194	0	
1:25:17 PM	46	193	213	166	35	202	222	215	219	222	221	219	0	
1:25:17 PM	63	220	223	144	39	220	213	172	172	198	211	215	0	
1:25:17 PM	61	215	220	147	39	217	187	148	136	158	179	190	0	
1:25:17 PM	44	186	208	170	37	196	178	172	150	150	166	176	0	
1:25:17 PM	35	172	203	182	35	186	196	198	168	159	168	176	0	
1:25:17 PM	34	172	203	182	34	187	210	202	170	161	169	177	0	
1:25:17 PM	35	173	204	181	34	188	212	202	170	161	169	177	0	
1:25:17 PM	35	173	204	181	34	188	212	202	170	161	169	177	0	
1:25:17 PM	35	173	204	181	34	188	212	202	170	161	169	177	0	
1:25:17 PM	35	173	204	181	34	188	212	202	170	161	169	177	0	
1:25:17 PM	35	173	204	181	34	188	212	202	170	161	169	177	0	
1:25:17 PM	35	173	204	181	34	188	212	202	170	161	169	177	0	
1:25:17 PM	35	173	204	181	34	188	212	202	170	161	169	177	0	
1:25:17 PM	35	173	204	181	34	188	212	202	170	161	169	177	0	
1:25:17 PM	35	173	204	181	34	188	212	202	170	161	169	177	0	
1:25:17 PM	35	173	204	181	34	188	212	202	170	161	169	177	0	
1:25:17 PM	35	173	204	181	34	188	212	202	170	161	169	177	0	
1:25:17 PM	35	173	204	181	34	188	212	202	172	162	169	177	0	
1:25:17 PM	36	174	204	180	34	188	212	203	176	165	170	179	0	
1:25:17 PM	37	176	205	178	35	189	212	206	181	170	173	181	0	
1:25:17 PM	40	180	205	175	36	192	213	209	188	175	176	183	0	
1:25:17 PM	42	184	207	172	36	194	214	212	193	180	179	185	0	
1:25:17 PM	45	187	207	169	37	196	215	215	197	184	182	187	0	
1:25:17 PM	47	190	208	167	38	198	216	217	201	187	184	189	0	
1:25:17 PM	48	192	209	165	38	199	216	218	203	189	185	189	0	
1:25:17 PM	49	193	209	164	39	200	217	218	203	189	185	189	0	
1:25:17 PM	50	193	209	164	39	200	217	218	202	188	186	189	0	
1:25:17 PM	49	192	209	164	39	200	217	218	198	186	185	188	0	
1:25:17 PM	48	191	209	165	38	199	216	216	194	181	183	187	0	
1:25:17 PM	46	189	208	168	37	198	215	213	188	176	180	185	0	
1:25:17 PM	43	185	207	171	36	195	214	209	181	170	176	182	0	
1:25:17 PM	40	180	206	175	36	192	213	205	175	164	172	179	0	
1:25:17 PM	37	176	205	178	35	190	212	202	171	162	170	178	0	
1:25:17 PM	35	174	204	180	34	188	212	202	170	161	169	177	0	
1:25:17 PM	35	173	204	181	34	188	212	202	170	161	169	177	0	
1:25:17 PM	35	173	204	181	34	188	212	202	170	161	169	177	0	
1:25:17 PM	35	173	204	181	34	188	212	202	170	161	169	177	0	
1:25:17 PM	35	173	204	181	34	188	212	202	170	161	169	177	0	
1:25:17 PM	35	173	204	181	34	188	212	202	170	161	169	177	0	
1:25:17 PM	35	173	204	181	34	188	212	202	170	161	169	177	0	
1:25:17 PM	35	173	204	181	34	188	212	202	170	161	169	177	0	
1:25:17 PM	35	173	204	181	34	188	212	202	170	161	169	177	0	
1:25:17 PM	35	173	204	181	34	188	212	202	170	161	169	177	0	
1:25:18 PM	35	173	204	181	34	188	212	202	170	161	169	177	0	
1:25:18 PM	35	173	204	181	34	188	212	202	170	161	169	177	0	
1:25:18 PM	35	173	204	181	34	188	212	202	170	161	169	177	0	
1:25:18 PM	35	173	204	181	34	188	212	202	170	161	169	177	0	
1:25:18 PM	35	173	204	181	34	188	212	202	170	161	169	177	0	
1:25:18 PM	35	173	204	181	34	188	212	202	170	161	169	177	0	
1:25:18 PM	35	173	204	181	34	188	212	202	170	161	169	177	0	
1:25:18 PM	35	173	204	181	34	188	212	202	170	161	169	177	0	
1:25:18 PM	35	173	204	181	34	188	212	202	170	161	169	177	0	
1:25:18 PM	35	173	204	181	34	188	212	202	170	161	169	177	0	
1:25:18 PM	35	173	204	181	34	188	212	202	170	161	169	177	0	
1:25:18 PM	35	174	204	181	34	188	212	202	170	161	169	177	0	
1:25:18 PM	35	174	204	181	34	188	212	202	170	161	169	177	0	
1:25:18 PM	35	174	204	181	34	188	212	202	171	163	170	178	0	
1:25:18 PM	36	175	204	180	34	188	212	204	174	166	173	179	0	
1:25:18 PM	38	178	205	177	35	190	212	207	177	168	176	182	0	
1:25:18 PM	41	181	206	174	36	193	213	208	178	169	177	183	0	
1:25:18 PM	42	183	206	172	36	194	214	208	178	169	177	183	0	
1:25:18 PM	42	183	206	173	36	194	214	207	177	168	176	182	0	
1:25:18 PM	40	181	206	174	36	193	213	204	175	166	173	180	0	
1:25:18 PM	38	177	205	177	35	190	212	202	172	163	170	178	0	
1:25:18 PM	36	174	204	180	34	188	212	202	170	161	169	177	0	
1:25:18 PM	35	173	204	181	34	187	212	202	170	161	169	177	0	
1:25:18 PM	35	173	204	181	34	188	212	202	170	161	169	177	0	
1:25:18 PM	35	173	204	181	34	188	212	202	170	161	169	177	0	
1:25:18 PM	35	173	204	181	34	188	212	202	170	161	169	177	0	
1:25:18 PM	35	173	204	181	34	188	212	202	170	161	169	177	0	
1:25:18 PM	35	173	204	181	34	188	212	202	170	161	169	177	0	
1:25:18 PM	35	173	204	181	34	188	212	202	170	161	169	177	0	
1:25:18 PM	35	173	204	181	34	188	212	202	169	159	167	175	0	
1:25:18 PM	34	172	204	182	34	187	212	206	178	165	167	175	0	
1:25:18 PM	33	173	205	182	33	188	216	220	208	195	190	192	0	
1:25:18 PM	44	191	213	167	34	201	222	217	221	222	220	218	0	
1:25:18 PM	62	219	222	145	38	220	214	176	177	201	213	217	0	
1:25:18 PM	62	217	220	145	39	218	189	147	136	160	181	192	0	
1:25:18 PM	45	188	208	168	37	197	177	170	149	150	166	177	0	
1:25:18 PM	35	172	203	181	35	186	194	197	168	159	168	176	0	
1:25:18 PM	34	172	203	182	34	187	210	202	170	161	169	177	0	
1:25:18 PM	35	173	204	181	34	188	212	202	170	161	169	177	0	
1:25:18 PM	35	173	204	181	34	188	212	202	170	161	169	177	0	
1:25:18 PM	35	173	204	181	34	188	212	202	170	161	169	177	0	
1:25:18 PM	35	173	204	181	34	187	212	202	170	161	169	177	0	
1:25:18 PM	35	173	204	181	34	188	212	202	170	161	169	177	0	
1:25:18 PM	35	173	204	181	34	188	212	202	170	161	169	177	0	
1:25:18 PM	35	173	204	181	34	188	212	202	170	161	169	177	0	
1:25:18 PM	35	173	204	181	34	188	212	202	170	161	169	177	0	
1:25:18 PM	35	173	204	181	34	188	212	202	170	161	169	177	0	
1:25:18 PM	35	173	204	181	34	188	212	202	170	161	169	177	0	
1:25:18 PM	35	173	204	181	34	188	212	202	170	161	169	177	0	
1:25:18 PM	35	173	204	181	34	188	212	202	172	162	169	177	0	
1:25:18 PM	36	174	204	180	34	188	212	203	176	165	170	179	0	
1:25:18 PM	37	176	204	178	35	189	212	205	181	169	173	181	0	
1:25:18 PM	40	180	205	175	36	191	213	208	187	175	175	183	0	
1:25:18 PM	42	183	206	172	36	194	214	212	193	180	179	185	0	
1:25:18 PM	45	187	207	169	37	196	215	215	197	184	182	187	0	
1:25:18 PM	47	189	208	167	38	198	216	217	201	187	184	189	0	
1:25:18 PM	48	191	209	165	38	199	216	218	203	188	185	189	0	
1:25:18 PM	49	193	209	164	38	200	217	218	203	189	185	190	0	
1:25:18 PM	50	193	209	164	39	200	217	218	202	188	186	189	0	
1:25:18 PM	49	192	209	164	39	200	217	218	199	186	185	189	0	
1:25:18 PM	48	191	209	165	38	199	216	216	194	181	183	187	0	
1:25:18 PM	46	189	208	168	37	198	215	213	189	176	181	185	0	
1:25:18 PM	43	185	207	171	36	195	214	209	182	171	177	182	0	
1:25:18 PM	40	181	206	175	36	192	213	205	175	165	172	180	0	
1:25:18 PM	37	177	205	178	35	190	212	202	171	162	170	178	0	
1:25:18 PM	35	174	204	180	34	188	212	202	170	161	169	177	0	
1:25:18 PM	35	173	204	181	34	188	212	202	170	161	169	177	0	
1:25:18 PM	35	173	204	181	34	188	212	202	170	161	169	177	0	
1:25:18 PM	35	173	204	181	34	188	212	202	170	161	169	177	0	
1:25:18 PM	35	173	204	181	34	188	212	202	170	161	169	177	0	
1:25:18 PM	35	173	204	181	34	188	212	202	170	161	169	177	0	
1:25:18 PM	35	173	204	181	34	188	212	202	170	161	169	177	0	
1:25:18 PM	35	173	204	181	34	188	212	202	170	161	169	177	0	
1:25:18 PM	35	173	204	181	34	188	212	202	170	161	169	177	0	
1:25:18 PM	35	173	204	181	34	188	212	202	170	161	169	177	0	
1:25:18 PM	35	173	204	181	34	188	212	202	170	161	169	177	0	
1:25:18 PM	35	173	204	181	34	188	212	202	170	161	169	177	0	
1:25:18 PM	35	173	204	181	34	188	212	202	170	161	169	177	0	
1:25:18 PM	35	173	204	181	34	188	212	202	170	161	169	177	0	
1:25:18 PM	35	173	204	181	34	188	212	202	170	161	169	177	0	
1:25:18 PM	35	173	204	181	34	188	212	202	170	161	169	177	0	
1:25:18 PM	35	173	204	181	34	188	212	202	170	161	169	177	0	
1:25:18 PM	35	173	204	181	34	187	212	202	170	161	169	177	0	
1:25:18 PM	35	173	204	181	34	188	212	202	170	161	169	177	0	
1:25:18 PM	35	173	204	181	34	188	212	202	170	161	169	177	0	
1:25:18 PM	35	173	204	181	34	188	212	202	170	161	169	177	0	
1:25:18 PM	35	173	204	181	34	188	212	202	170	161	169	177	0	
1:25:18 PM	35	173	204	181	34	188	212	202	170	161	169	177	0	
1:25:18 PM	35	173	204	181	34	188	212	202	171	163	170	178	0	
1:25:18 PM	36	174	204	180	34	188	212	204	174	165	173	179	0	
1:25:18 PM	38	177	205	177	35	190	213	207	177	168	176	182	0	
1:25:18 PM	41	181	206	174	36	193	213	208	178	169	176	183	0	
1:25:18 PM	42	183	206	172	36	194	214	208	178	169	177	183	0	
1:25:18 PM	42	183	206	172	36	194	214	207	177	168	176	182	0	
1:25:18 PM	40	181	206	174	36	193	213	205	175	166	174	180	0	
1:25:18 PM	38	178	205	177	35	190	212	202	172	163	170	178	0	
1:25:18 PM	36	174	204	180	34	188	212	202	170	161	169	177	0	
1:25:18 PM	35	173	204	181	34	188	212	202	170	161	169	177	0	
1:25:18 PM	35	173	204	181	34	188	212	202	170	161	169	177	0	
1:25:18 PM	35	173	204	181	34	188	212	202	170	161	169	177	0	
1:25:19 PM	35	173	204	181	34	188	212	202	170	161	169	177	0	
1:25:19 PM	35	173	204	181	34	187	212	202	170	161	169	177	0	
1:25:19 PM	35	173	204	181	34	187	212	202	170	161	169	177	0	
1:25:19 PM	35	173	204	181	34	188	212	202	170	161	169	177	0	
1:25:19 PM	35	173	204	181	34	188	212	201	169	160	167	175	0	
1:25:19 PM	34	172	204	182	34	187	212	205	176	163	167	175	0	
1:25:19 PM	33	172	205	182	33	188	216	218	205	192	187	190	0	
1:25:19 PM	43	189	212	169	34	199	221	218	222	222	219	216	0	
1:25:19 PM	61	218	222	146	38	219	215	180	181	204	215	218	0	
1:25:19 PM	63	219	221	144	39	219	191	148	137	162	183	194	0	
1:25:19 PM	47	190	209	167	37	199	177	167	147	150	166	177	0	
1:25:19 PM	35	173	203	181	35	187	193	196	167	158	168	176	0	
1:25:19 PM	34	172	203	182	34	187	209	202	170	161	169	177	0	
1:25:19 PM	35	173	204	181	34	188	212	202	170	161	169	177	0	
1:25:19 PM	35	173	204	181	34	188	212	202	170	161	169	177	0	
1:25:19 PM	35	173	204	181	34	188	212	202	170	161	169	177	0	
1:25:19 PM	35	173	204	181	34	188	212	202	170	161	169	177	0	
1:25:19 PM	35	173	204	181	34	188	212	202	170	161	169	177	0	
1:25:19 PM	35	173	204	181	34	188	212	202	170	161	169	177	0	
1:25:19 PM	35	173	204	181	34	188	212	202	170	161	169	177	0	
1:25:19 PM	35	173	204	181	34	188	212	202	170	161	169	177	0	
1:25:19 PM	35	173	204	181	34	188	212	202	170	161	169	177	0	
1:25:19 PM	35	173	204	181	34	188	212	202	170	161	169	177	0	
1:25:19 PM	35	173	204	181	34	188	212	202	170	161	169	177	0	
1:25:19 PM	35	173	204	181	34	188	212	202	172	162	169	177	0	
1:25:19 PM	36	174	204	180	34	188	212	203	175	165	170	179	0	
1:25:19 PM	37	176	204	179	35	189	212	205	181	169	172	181	0	
1:25:19 PM	40	179	205	176	36	191	213	208	187	174	175	183	0	
1:25:19 PM	42	183	206	172	36	194	214	212	192	180	179	185	0	
1:25:19 PM	44	186	207	170	37	196	215	215	197	184	182	187	0	
1:25:19 PM	46	189	208	167	38	198	216	217	200	187	184	189	0	
1:25:19 PM	48	191	209	165	38	199	216	218	202	188	185	189	0	
1:25:19 PM	49	193	209	164	38	200	217	218	203	189	185	190	0	
1:25:19 PM	50	193	209	164	39	200	217	218	202	189	186	189	0	
1:25:19 PM	49	193	209	164	39	200	217	218	199	186	185	189	0	
1:25:19 PM	48	191	209	165	38	199	216	216	194	182	183	187	0	
1:25:19 PM	46	189	208	167	37	198	215	214	189	177	181	185	0	
1:25:19 PM	43	185	207	171	36	195	214	210	182	171	177	182	0	
1:25:19 PM	40	181	206	174	36	193	213	205	175	165	173	180	0	
1:25:19 PM	37	177	205	178	35	190	212	203	171	162	170	178	0	
1:25:19 PM	36	174	204	180	34	188	212	202	170	161	169	177	0	
1:25:19 PM	35	173	204	181	34	188	212	202	170	161	169	177	0	
1:25:19 PM	35	173	204	181	34	188	212	202	170	161	169	177	0	
1:25:19 PM	35	173	204	181	34	188	212	202	170	161	169	177	0	
1:25:19 PM	35	173	204	181	34	188	212	202	170	161	169	177	0	
1:25:19 PM	35	173	204	181	34	188	212	202	170	161	169	177	0	
1:25:19 PM	35	173	204	181	34	188	212	202	170	161	169	177	0	
1:25:19 PM	35	173	204	181	34	188	212	202	170	161	169	177	0	
1:25:19 PM	35	173	204	181	34	188	212	202	170	161	169	177	0	
1:25:19 PM	35	173	204	181	34	188	212	202	170	161	169	177	0	
1:25:19 PM	35	173	204	181	34	188	212	202	170	161	169	177	0	
1:25:19 PM	35	173	204	181	34	188	212	202	170	161	169	177	0	
1:25:19 PM	35	173	204	181	34	188	212	202	170	161	169	177	0	
1:25:19 PM	35	173	204	181	34	188	212	202	170	161	169	177	0	
1:25:19 PM	35	173	204	181	34	188	212	202	170	161	169	177	0	
1:25:19 PM	35	173	204	181	34	188	212	202	170	161	169	177	0	
1:25:19 PM	35	173	204	181	34	188	212	202	170	161	169	177	0	
1:25:19 PM	35	173	204	181	34	188	212	202	170	161	169	177	0	
1:25:19 PM	35	173	204	181	34	188	212	202	170	161	169	177	0	
1:25:19 PM	35	173	204	181	34	188	212	202	170	161	169	177	0	
1:25:19 PM	35	173	204	181	34	188	212	202	170	161	169	177	0	
1:25:19 PM	35	173	204	181	34	188	212	202	170	161	169	177	0	
1:25:19 PM	35	173	204	181	34	188	212	202	170	161	169	177	0	
1:25:19 PM	35	173	204	181	34	188	212	202	171	162	170	178	0	
1:25:19 PM	36	174	204	180	34	188	212	204	174	165	173	179	0	
1:25:19 PM	38	177	205	178	35	190	212	207	177	168	176	182	0	
1:25:19 PM	40	181	206	174	36	192	213	208	178	169	177	183	0	
1:25:19 PM	42	183	206	173	36	194	214	208	178	169	177	183	0	
1:25:19 PM	42	183	206	172	37	194	214	207	177	168	176	182	0	
1:25:19 PM	41	181	206	174	36	193	213	205	175	166	174	180	0	
1:25:19 PM	38	178	205	177	35	191	212	203	172	163	171	178	0	
1:25:19 PM	36	175	204	180	34	188	212	202	170	161	169	177	0	
1:25:19 PM	35	173	204	181	34	187	212	202	170	161	169	177	0	
1:25:19 PM	35	173	204	181	34	188	212	202	170	161	169	177	0	
1:25:19 PM	35	173	204	181	34	188	212	202	170	161	169	177	0	
1:25:19 PM	35	173	204	181	34	188	212	202	170	161	169	177	0	
1:25:19 PM	35	173	204	181	34	188	212	202	170	161	169	177	0	
1:25:19 PM	35	173	204	181	34	188	212	202	170	161	169	177	0	
1:25:19 PM	35	173	204	181	34	188	212	202	170	161	169	177	0	
1:25:19 PM	35	173	204	181	34	188	212	202	169	160	168	176	0	
1:25:19 PM	34	172	204	182	34	187	212	205	175	162	166	174	0	
1:25:19 PM	33	172	205	182	33	187	215	217	203	189	185	188	0	
1:25:19 PM	42	187	211	171	34	198	221	220	223	221	217	215	0	
1:25:19 PM	60	216	222	147	38	218	216	184	186	207	217	219	0	
1:25:19 PM	64	220	222	143	39	220	193	148	138	164	185	195	0	
1:25:19 PM	48	192	210	165	37	200	177	164	145	150	166	178	0	
1:25:19 PM	36	173	203	181	35	187	191	195	166	158	167	176	0	
1:25:19 PM	34	172	203	182	34	187	209	202	170	161	169	177	0	
1:25:19 PM	35	173	204	181	34	188	212	202	170	161	169	177	0	
1:25:19 PM	35	173	204	181	34	188	212	202	170	161	169	177	0	
1:25:19 PM	35	173	204	181	34	188	212	202	170	161	169	177	0	
1:25:19 PM	35	173	204	181	34	188	212	202	170	161	169	177	0	
1:25:19 PM	35	173	204	181	34	188	212	202	170	161	169	177	0	
1:25:19 PM	35	173	204	181	34	188	212	202	170	161	169	177	0	
1:25:19 PM	35	173	204	181	34	188	212	202	170	161	169	177	0	
1:25:19 PM	35	173	204	181	34	188	212	202	170	161	169	177	0	
1:25:19 PM	35	173	204	181	34	188	212	202	170	161	169	177	0	
1:25:19 PM	35	173	204	181	34	188	212	202	170	161	169	177	0	
1:25:19 PM	35	173	204	181	34	188	212	202	170	161	169	177	0	
1:25:19 PM	35	173	204	181	34	188	212	202	171	162	169	177	0	
1:25:20 PM	35	174	204	180	34	188	212	203	175	164	170	178	0	
1:25:20 PM	37	176	204	179	35	189	212	205	180	169	172	181	0	
1:25:20 PM	39	179	205	176	36	191	213	208	186	174	175	183	0	
1:25:20 PM	42	183	206	173	36	193	214	211	192	179	178	185	0	
1:25:20 PM	44	186	207	170	37	196	215	215	196	183	182	187	0	
1:25:20 PM	46	189	208	167	38	198	216	217	200	186	184	189	0	
1:25:20 PM	48	191	209	165	38	199	216	218	202	188	185	189	0	
1:25:20 PM	49	193	209	164	38	200	217	218	203	189	185	190	0	
1:25:20 PM	50	193	209	164	39	200	217	218	202	189	185	189	0	
1:25:20 PM	49	193	209	164	39	200	217	218	199	186	185	189	0	
1:25:20 PM	48	192	209	165	38	199	217	216	195	182	184	188	0	
1:25:20 PM	46	189	209	167	37	198	216	214	189	177	181	185	0	
1:25:20 PM	44	186	207	170	37	196	215	210	183	171	177	183	0	
1:25:20 PM	41	181	206	174	36	193	213	206	176	165	173	180	0	
1:25:20 PM	38	177	205	178	35	190	212	203	171	162	170	178	0	
1:25:20 PM	36	174	204	180	34	188	212	202	170	161	169	177	0	
1:25:20 PM	35	173	204	181	34	188	212	202	170	161	169	177	0	
1:25:20 PM	35	173	204	181	34	188	212	202	170	161	169	177	0	
1:25:20 PM	35	173	204	181	34	188	212	202	170	161	169	177	0	
1:25:20 PM	35	173	204	181	34	188	212	202	170	161	169	177	0	
1:25:20 PM	35	173	204	181	34	188	212	202	170	161	169	177	0	
1:25:20 PM	35	173	204	181	34	188	212	202	170	161	169	177	0	
1:25:20 PM	35	173	204	181	34	188	212	202	170	161	169	177	0	
1:25:20 PM	35	173	204	181	34	188	212	202	170	161	169	177	0	
1:25:20 PM	35	173	204	181	34	188	212	202	170	161	169	177	0	
1:25:20 PM	35	173	204	181	34	188	212	202	170	161	169	177	0	
1:25:20 PM	35	173	204	181	34	188	212	202	170	161	169	177	0	
1:25:20 PM	35	173	204	181	34	188	212	202	170	161	169	177	0	
1:25:20 PM	35	173	204	181	34	188	212	202	170	161	169	177	0	
1:25:20 PM	35	173	204	181	34	188	212	202	170	161	169	177	0	
1:25:20 PM	35	173	204	181	34	188	212	202	170	161	169	177	0	
1:25:20 PM	35	173	204	181	34	188	212	202	170	161	169	177	0	
1:25:20 PM	35	173	204	181	34	188	212	202	170	161	169	177	0	
1:25:20 PM	35	173	204	181	34	188	212	202	170	161	169	177	0	
1:25:20 PM	35	173	204	181	34	188	212	202	170	161	169	177	0	
1:25:20 PM	35	173	204	181	34	187	212	202	170	161	169	177	0	
1:25:20 PM	35	173	204	181	34	187	212	202	170	161	169	177	0	
1:25:20 PM	35	173	204	181	34	188	212	202	170	161	169	177	0	
1:25:20 PM	35	173	204	181	34	188	212	202	171	162	170	177	0	
1:25:20 PM	35	174	204	180	34	188	212	204	174	165	173	179	0	
1:25:20 PM	37	177	205	178	35	190	212	206	177	168	175	182	0	
1:25:20 PM	40	181	206	175	36	192	213	208	178	169	176	183	0	
1:25:20 PM	42	183	206	173	36	194	214	208	178	169	177	183	0	
1:25:20 PM	42	183	206	172	37	194	214	207	177	168	176	182	0	
1:25:20 PM	41	182	206	174	36	193	213	205	176	166	174	180	0	
1:25:20 PM	38	178	205	177	35	191	213	203	173	163	171	178	0	
1:25:20 PM	36	175	204	180	34	188	212	202	171	161	169	177	0	
1:25:20 PM	35	173	204	181	34	188	212	202	170	161	169	177	0	
1:25:20 PM	35	173	204	181	34	188	212	202	170	161	169	177	0	
1:25:20 PM	35	173	204	181	34	188	212	202	170	161	169	177	0	
1:25:20 PM	35	173	204	181	34	188	212	202	170	161	169	177	0	
1:25:20 PM	35	173	204	181	34	188	212	202	170	161	169	177	0	
1:25:20 PM	35	173	204	181	34	188	212	202	170	161	169	177	0	
1:25:20 PM	35	173	204	181	34	188	212	202	170	161	169	177	0	
1:25:20 PM	35	173	204	181	34	188	212	202	169	160	168	176	0	
1:25:20 PM	34	172	204	182	34	187	212	204	174	161	166	174	0	
1:25:20 PM	33	172	204	183	33	187	215	216	200	186	183	187	0	
1:25:20 PM	40	185	210	172	34	197	221	221	223	221	216	214	0	
1:25:20 PM	59	214	221	148	37	217	218	188	191	210	219	220	0	
1:25:20 PM	64	221	222	143	39	220	195	149	140	167	187	197	0	
1:25:20 PM	49	194	211	163	38	202	177	162	143	149	167	179	0	
1:25:20 PM	36	174	203	180	35	188	189	193	165	157	167	176	0	
1:25:20 PM	34	172	203	182	34	186	208	202	170	161	169	177	0	
1:25:20 PM	35	173	204	181	34	188	212	202	170	161	169	177	0	
1:25:20 PM	35	174	204	181	34	188	212	202	170	161	169	177	0	
1:25:20 PM	35	173	204	181	34	188	212	202	170	161	169	177	0	
1:25:20 PM	35	173	204	181	34	188	212	202	170	161	169	177	0	
1:25:20 PM	35	173	204	181	34	188	212	202	170	161	169	177	0	
1:25:20 PM	35	173	204	181	34	188	212	202	170	161	169	177	0	
1:25:20 PM	35	174	204	181	34	188	212	202	170	161	169	177	0	
1:25:20 PM	35	173	204	181	34	188	212	202	170	161	169	177	0	
1:25:20 PM	35	173	204	181	34	188	212	202	170	161	169	177	0	
1:25:20 PM	35	173	204	181	34	188	212	202	170	161	169	177	0	
1:25:20 PM	35	173	204	181	34	188	212	202	170	161	169	177	0	
1:25:20 PM	35	173	204	181	34	188	212	202	171	162	169	177	0	
1:25:20 PM	35	174	204	180	34	188	212	203	174	164	170	178	0	
1:25:20 PM	37	176	204	179	35	189	212	205	180	168	172	180	0	
1:25:20 PM	39	179	205	176	35	191	213	208	186	173	175	183	0	
1:25:20 PM	42	182	206	173	36	193	214	211	191	179	178	185	0	
1:25:20 PM	44	186	207	170	37	195	215	215	196	183	182	187	0	
1:25:20 PM	46	189	208	167	38	197	216	217	200	186	184	188	0	
1:25:20 PM	48	191	209	166	38	199	216	218	202	188	185	189	0	
1:25:20 PM	49	193	209	164	38	200	217	218	203	189	185	190	0	
1:25:20 PM	50	193	209	164	39	200	217	218	203	189	185	189	0	
1:25:20 PM	49	193	209	164	39	200	217	218	200	187	185	189	0	
1:25:20 PM	49	192	209	165	38	199	217	216	195	182	184	188	0	
1:25:20 PM	47	190	209	167	38	198	216	214	190	177	181	185	0	
1:25:20 PM	44	186	208	170	37	196	214	210	183	172	178	183	0	
1:25:20 PM	41	182	206	174	36	193	213	206	176	166	173	180	0	
1:25:20 PM	38	177	205	177	35	190	212	203	172	162	170	178	0	
1:25:20 PM	36	175	204	180	34	188	212	202	170	161	169	177	0	
1:25:20 PM	35	173	204	181	34	188	212	202	170	161	169	177	0	
1:25:20 PM	35	173	204	181	34	188	212	202	170	161	169	177	0	
1:25:20 PM	35	173	204	181	34	188	212	202	170	161	169	177	0	
1:25:20 PM	35	173	204	181	34	188	212	202	170	161	169	177	0	
1:25:20 PM	35	173	204	181	34	188	212	202	170	161	169	177	0	
1:25:20 PM	35	173	204	181	34	188	212	202	170	161	169	177	0	
1:25:20 PM	35	173	204	181	34	188	212	202	170	161	169	177	0	
1:25:20 PM	35	173	204	181	34	188	212	202	170	161	169	177	0	
1:25:20 PM	35	173	204	181	34	188	212	202	170	161	169	177	0	
1:25:21 PM	35	173	204	181	34	188	212	202	170	161	169	177	0	
1:25:21 PM	35	173	204	181	34	188	212	202	170	161	169	177	0	
1:25:21 PM	35	173	204	181	34	188	212	202	170	161	169	177	0	
1:25:21 PM	35	173	204	181	34	188	212	202	170	161	169	177	0	
1:25:21 PM	35	174	204	181	34	188	212	202	170	161	169	177	0	
1:25:21 PM	35	173	204	181	34	188	212	202	170	161	169	177	0	
1:25:21 PM	35	173	204	181	34	188	212	202	170	161	169	177	0	
1:25:21 PM	35	173	204	181	34	188	212	202	170	161	169	177	0	
1:25:21 PM	35	173	204	181	34	188	212	202	170	161	169	177	0	
1:25:21 PM	35	173	204	181	34	188	212	202	170	161	169	177	0	
1:25:21 PM	35	173	204	181	34	188	212	202	170	161	169	177	0	
1:25:21 PM	35	173	204	181	34	188	212	202	170	161	169	177	0	
1:25:21 PM	35	173	204	181	34	188	212	202	170	161	169	177	0	
1:25:21 PM	35	173	204	181	34	188	212	202	171	162	170	177	0	
1:25:21 PM	35	174	204	180	34	188	212	204	173	165	172	179	0	
1:25:21 PM	37	177	205	178	35	190	212	206	177	168	175	181	0	
1:25:21 PM	40	180	206	175	36	192	213	208	178	169	176	183	0	
1:25:21 PM	42	183	206	173	36	194	214	208	178	169	177	183	0	
1:25:21 PM	42	183	206	172	37	194	214	207	178	168	176	183	0	
1:25:21 PM	41	182	206	174	36	193	214	205	176	167	174	181	0	
1:25:21 PM	38	178	206	177	35	191	213	203	173	163	171	178	0	
1:25:21 PM	36	175	204	179	34	189	212	202	171	161	169	177	0	
1:25:21 PM	35	173	204	181	34	188	212	202	170	161	169	177	0	
1:25:21 PM	35	173	204	181	34	188	212	202	170	161	169	177	0	
1:25:21 PM	35	173	204	181	34	188	212	202	170	161	169	177	0	
1:25:21 PM	35	173	204	181	34	188	212	202	170	161	169	177	0	
1:25:21 PM	35	173	204	181	34	188	212	202	170	161	169	177	0	
1:25:21 PM	35	173	204	181	34	188	212	202	170	161	169	177	0	
1:25:21 PM	35	173	204	181	34	187	212	202	170	161	169	177	0	
1:25:21 PM	35	173	204	181	34	188	212	202	169	160	168	176	0	
1:25:21 PM	34	173	204	181	34	187	212	204	173	161	166	174	0	
1:25:21 PM	33	171	204	183	33	187	215	215	197	183	180	185	0	
1:25:21 PM	39	184	210	174	33	196	220	221	223	219	214	212	0	
1:25:21 PM	58	213	221	150	37	216	218	191	195	213	220	221	0	
1:25:21 PM	64	221	223	142	39	221	198	150	142	169	189	199	0	
1:25:21 PM	51	197	212	161	38	203	177	159	141	150	167	179	0	
1:25:21 PM	37	175	204	179	35	188	187	192	164	156	167	176	0	
1:25:21 PM	34	172	203	182	34	186	207	202	170	161	169	177	0	
1:25:21 PM	35	173	204	181	34	187	212	202	170	161	169	177	0	
1:25:21 PM	35	173	204	181	34	188	212	202	170	161	169	177	0	
1:25:21 PM	35	173	204	181	34	188	212	202	170	161	169	177	0	
1:25:21 PM	35	173	204	181	34	188	212	202	170	161	169	177	0	
1:25:21 PM	35	173	204	181	34	188	212	202	170	161	169	177	0	
1:25:21 PM	35	173	204	181	34	188	212	202	170	161	169	177	0	
1:25:21 PM	35	173	204	181	34	188	212	202	170	161	169	177	0	
1:25:21 PM	35	173	204	181	34	188	212	202	170	161	169	177	0	
1:25:21 PM	35	173	204	181	34	188	212	202	170	161	169	177	0	
1:25:21 PM	35	173	204	181	34	188	212	202	170	161	169	177	0	
1:25:21 PM	35	173	204	181	34	188	212	202	170	161	169	177	0	
1:25:21 PM	35	173	204	181	34	188	212	202	171	162	169	177	0	
1:25:21 PM	35	174	204	180	34	188	212	203	174	164	170	178	0	
1:25:21 PM	37	175	204	179	35	189	212	205	179	168	172	180	0	
1:25:21 PM	39	179	205	176	35	191	213	208	185	173	175	182	0	
1:25:21 PM	42	182	206	173	36	193	214	211	191	178	178	185	0	
1:25:21 PM	44	185	207	170	37	195	215	214	196	183	181	187	0	
1:25:21 PM	46	189	208	168	38	197	216	217	200	186	184	188	0	
1:25:21 PM	48	191	209	166	38	199	216	218	202	188	185	189	0	
1:25:21 PM	49	193	209	164	38	200	216	218	203	189	185	190	0	
1:25:21 PM	50	193	209	164	39	200	217	218	203	189	186	189	0	
1:25:21 PM	50	193	209	164	39	200	217	218	200	187	185	189	0	
1:25:21 PM	49	192	209	165	39	199	217	217	195	183	184	188	0	
1:25:21 PM	47	190	208	167	38	198	216	214	190	178	181	186	0	
1:25:21 PM	44	186	208	170	37	196	215	211	184	172	178	183	0	
1:25:21 PM	41	182	207	174	36	193	214	206	177	166	174	180	0	
1:25:21 PM	38	178	205	177	35	191	212	203	172	162	170	178	0	
1:25:21 PM	36	175	204	180	34	188	212	202	170	161	169	177	0	
1:25:21 PM	35	173	204	181	34	188	212	202	170	161	169	177	0	
1:25:21 PM	35	173	204	181	34	188	212	202	170	161	169	177	0	
1:25:21 PM	35	173	204	181	34	188	212	202	170	161	169	177	0	
1:25:21 PM	35	173	204	181	34	188	212	202	170	161	169	177	0	
1:25:21 PM	35	173	204	181	34	188	212	202	170	161	169	177	0	
1:25:21 PM	35	173	204	181	34	188	212	202	170	161	169	177	0	
1:25:21 PM	35	173	204	181	34	188	212	202	170	161	169	177	0	
1:25:21 PM	35	173	204	181	34	188	212	202	170	161	169	177	0	
1:25:21 PM	35	173	204	181	34	188	212	202	170	161	169	177	0	
1:25:21 PM	35	174	204	181	34	188	212	202	170	161	169	177	0	
1:25:21 PM	35	174	204	181	34	188	212	202	170	161	169	177	0	
1:25:21 PM	35	173	204	181	34	188	212	202	170	161	169	177	0	
1:25:21 PM	35	173	204	181	34	188	212	202	170	161	169	177	0	
1:25:21 PM	35	173	204	181	34	188	212	0	0	0	0	0	0	
1:25:21 PM	35	173	204	181	34	188	212	202	170	161	169	177	0	
1:25:21 PM	35	173	204	181	34	188	212	202	170	161	169	177	0	
1:25:21 PM	35	173	204	181	34	188	212	202	170	161	169	177	0	
1:25:21 PM	35	173	204	181	34	188	212	202	170	161	169	177	0	
1:25:21 PM	35	173	204	181	34	188	212	202	170	161	169	177	0	
1:25:21 PM	35	173	204	181	34	188	212	202	170	161	169	177	0	
1:25:21 PM	35	173	204	181	34	188	212	202	170	161	169	177	0	
1:25:21 PM	35	173	204	181	34	188	212	202	170	161	169	177	0	
1:25:21 PM	35	173	204	181	34	188	212	202	171	162	170	177	0	
1:25:21 PM	35	174	204	180	34	188	212	204	173	164	172	179	0	
1:25:21 PM	37	176	205	178	35	189	212	206	177	167	175	181	0	
1:25:21 PM	40	180	206	175	35	192	213	208	178	169	176	183	0	
1:25:21 PM	42	183	206	173	36	193	214	208	178	169	177	183	0	
1:25:21 PM	42	183	206	172	37	194	214	207	178	168	176	183	0	
1:25:21 PM	41	182	206	174	36	193	214	205	176	167	174	181	0	
1:25:21 PM	39	179	206	176	35	191	213	203	173	164	171	178	0	
1:25:21 PM	36	175	204	179	35	189	212	202	171	161	169	177	0	
1:25:21 PM	35	174	204	181	34	188	212	202	170	161	169	177	0	
1:25:21 PM	35	173	204	181	34	188	212	202	170	161	169	177	0	
1:25:21 PM	35	173	204	181	34	188	212	202	170	161	169	177	0	
1:25:22 PM	35	173	204	181	34	188	212	202	170	161	169	177	0	
1:25:22 PM	35	173	204	181	34	188	212	202	170	161	169	177	0	
1:25:22 PM	35	173	204	181	34	188	212	202	170	161	169	177	0	
1:25:22 PM	35	173	204	181	34	188	212	202	170	161	169	177	0	
1:25:22 PM	35	173	204	181	34	187	212	202	169	161	168	176	0	
1:25:22 PM	35	173	204	181	34	187	212	203	172	160	166	174	0	
1:25:22 PM	33	171	204	183	33	186	214	214	195	180	178	183	0	
1:25:22 PM	39	182	209	175	33	194	220	222	223	218	212	210	0	
1:25:22 PM	57	211	220	151	37	214	219	195	199	215	221	221	0	
1:25:22 PM	65	222	223	142	39	221	200	152	144	172	192	201	0	
1:25:22 PM	52	199	212	159	38	205	177	157	139	150	168	180	0	
1:25:22 PM	37	176	204	178	35	189	186	190	163	156	167	176	0	
1:25:22 PM	34	171	203	182	34	186	206	201	170	161	169	177	0	
1:25:22 PM	35	173	204	181	34	187	212	202	170	161	169	177	0	
1:25:22 PM	35	173	204	181	34	188	212	202	170	161	169	177	0	
1:25:22 PM	35	173	204	181	34	188	212	202	170	161	169	177	0	
1:25:22 PM	35	173	204	181	34	188	212	202	170	161	169	177	0	
1:25:22 PM	35	173	204	181	34	188	212	202	170	161	169	177	0	
1:25:22 PM	35	173	204	181	34	188	212	202	170	161	169	177	0	
1:25:22 PM	35	173	204	181	34	188	212	202	170	161	169	177	0	
1:25:22 PM	35	173	204	181	34	188	212	202	170	161	169	177	0	
1:25:22 PM	35	173	204	181	34	188	212	202	170	161	169	177	0	
1:25:22 PM	35	173	204	181	34	188	212	202	170	161	169	177	0	
1:25:22 PM	35	173	204	181	34	188	212	202	170	161	169	177	0	
1:25:22 PM	35	173	204	181	34	188	212	202	171	162	169	177	0	
1:25:22 PM	35	174	204	180	34	188	212	203	174	164	170	178	0	
1:25:22 PM	36	175	204	179	35	189	212	205	179	168	172	180	0	
1:25:22 PM	39	178	205	177	35	191	213	207	185	173	174	182	0	
1:25:22 PM	41	182	206	173	36	193	214	211	191	178	178	184	0	
1:25:22 PM	44	185	207	170	37	195	215	214	196	182	181	186	0	
1:25:22 PM	46	188	208	168	38	197	216	217	199	186	184	188	0	
1:25:22 PM	48	191	209	166	38	199	216	218	202	188	185	189	0	
1:25:22 PM	49	192	209	164	38	200	216	218	203	189	185	190	0	
1:25:22 PM	50	193	209	164	39	200	217	218	203	189	185	189	0	
1:25:22 PM	50	193	209	164	39	200	217	218	200	187	185	189	0	
1:25:22 PM	49	192	209	165	39	199	217	217	196	183	184	188	0	
1:25:22 PM	47	190	208	167	38	198	216	214	191	178	182	186	0	
1:25:22 PM	44	186	208	170	37	196	215	211	184	172	178	183	0	
1:25:22 PM	41	182	207	173	36	193	214	207	177	167	174	180	0	
1:25:22 PM	38	178	205	177	35	191	212	203	172	162	171	178	0	
1:25:22 PM	36	175	204	180	34	189	212	202	170	161	169	177	0	
1:25:22 PM	35	174	204	181	34	188	212	202	170	161	169	177	0	
1:25:22 PM	35	173	204	181	34	188	212	202	170	161	169	177	0	
1:25:22 PM	35	173	204	181	34	188	212	202	170	161	169	177	0	
1:25:22 PM	35	173	204	181	34	188	212	202	170	161	169	177	0	
1:25:22 PM	35	173	204	181	34	188	212	202	170	161	169	177	0	
1:25:22 PM	35	173	204	181	34	188	212	202	170	161	169	177	0	
1:25:22 PM	35	173	204	181	34	188	212	202	170	161	169	177	0	
1:25:22 PM	35	173	204	181	34	187	212	202	170	161	169	177	0	
1:25:22 PM	35	173	204	181	34	187	212	202	170	161	169	177	0	
1:25:22 PM	35	173	204	181	34	188	212	202	170	161	169	177	0	
1:25:22 PM	35	173	204	181	34	188	212	202	170	161	169	177	0	
1:25:22 PM	35	173	204	181	34	187	212	202	170	161	169	177	0	
1:25:22 PM	35	173	204	181	34	188	212	202	170	161	169	177	0	
1:25:22 PM	35	173	204	181	34	188	212	202	170	161	169	177	0	
1:25:22 PM	35	173	204	181	34	188	212	202	170	161	169	177	0	
1:25:22 PM	35	173	204	181	34	188	212	202	170	161	169	177	0	
1:25:22 PM	35	173	204	181	34	188	212	202	170	161	169	177	0	
1:25:22 PM	35	173	204	181	34	188	212	202	170	161	169	177	0	
1:25:22 PM	35	173	204	181	34	188	212	202	170	161	169	177	0	
1:25:22 PM	35	173	204	181	34	188	212	202	170	161	169	177	0	
1:25:22 PM	35	173	204	181	34	188	212	202	170	161	169	177	0	
1:25:22 PM	35	173	204	181	34	188	212	202	170	161	169	177	0	
1:25:22 PM	35	173	204	181	34	188	212	202	171	162	170	177	0	
1:25:22 PM	35	174	204	180	34	188	212	203	173	164	172	179	0	
1:25:22 PM	37	176	205	179	35	189	212	206	176	167	175	181	0	
1:25:22 PM	40	180	206	175	35	192	213	208	178	169	176	183	0	
1:25:22 PM	42	183	206	173	36	193	214	208	178	169	177	183	0	
1:25:22 PM	43	183	206	172	37	194	214	207	178	169	176	183	0	
1:25:22 PM	41	182	206	173	36	193	214	206	176	167	175	181	0	
1:25:22 PM	39	179	206	176	35	191	213	203	173	164	172	179	0	
1:25:22 PM	37	175	204	179	35	189	212	202	171	161	169	177	0	
1:25:22 PM	35	174	204	181	34	188	212	202	170	161	169	177	0	
1:25:22 PM	35	173	204	181	34	188	212	202	170	161	169	177	0	
1:25:22 PM	35	173	204	181	34	188	212	202	170	161	169	177	0	
1:25:22 PM	35	173	204	181	34	188	212	202	170	161	169	177	0	
1:25:22 PM	35	173	204	181	34	188	212	202	170	161	169	177	0	
1:25:22 PM	35	173	204	181	34	188	212	202	170	161	169	177	0	
1:25:22 PM	35	173	204	181	34	187	212	202	170	161	169	177	0	
1:25:22 PM	35	173	204	181	34	188	212	202	169	161	168	176	0	
1:25:22 PM	35	173	204	181	34	187	212	203	171	160	166	174	0	
1:25:22 PM	33	171	204	183	33	186	214	213	192	178	177	182	0	
1:25:22 PM	38	180	208	176	33	193	220	222	222	216	209	208	0	
1:25:22 PM	55	209	219	153	37	213	220	198	203	217	222	221	0	
1:25:22 PM	65	223	223	141	39	222	202	154	147	175	194	203	0	
1:25:22 PM	54	201	213	158	39	206	178	155	138	150	169	181	0	
1:25:22 PM	38	177	204	177	35	190	184	188	162	155	167	176	0	
1:25:22 PM	34	171	203	182	34	186	205	201	170	161	169	177	0	
1:25:22 PM	35	173	204	181	34	187	212	202	170	161	169	177	0	
1:25:22 PM	35	173	204	181	34	187	212	202	170	161	169	177	0	
1:25:22 PM	35	173	204	181	34	188	212	202	170	161	169	177	0	
1:25:22 PM	35	173	204	181	34	188	212	202	170	161	169	177	0	
1:25:22 PM	35	173	204	181	34	188	212	202	170	161	169	177	0	
1:25:22 PM	35	173	204	181	34	188	212	202	170	161	169	177	0	
1:25:22 PM	35	173	204	181	34	188	212	202	170	161	169	177	0	
1:25:22 PM	35	173	204	181	34	188	212	202	170	161	169	177	0	
1:25:22 PM	35	173	204	181	34	188	212	202	170	161	169	177	0	
1:25:22 PM	35	174	204	181	34	188	212	202	170	161	169	177	0	
1:25:22 PM	35	173	204	181	34	188	212	202	170	161	169	177	0	
1:25:22 PM	35	173	204	181	34	188	212	202	171	162	169	177	0	
1:25:23 PM	35	174	204	181	34	188	212	202	173	163	170	178	0	
1:25:23 PM	36	175	204	179	35	189	212	204	179	167	171	180	0	
1:25:23 PM	39	178	205	177	35	191	213	207	184	172	174	182	0	
1:25:23 PM	41	182	206	174	36	193	214	210	190	178	177	184	0	
1:25:23 PM	44	185	207	171	37	195	215	214	195	182	181	186	0	
1:25:23 PM	46	188	208	168	38	197	216	216	199	185	183	188	0	
1:25:23 PM	47	191	209	166	38	199	216	218	202	188	185	189	0	
1:25:23 PM	49	192	209	164	38	200	216	218	203	189	185	190	0	
1:25:23 PM	50	193	209	164	39	200	217	218	203	189	185	189	0	
1:25:23 PM	50	193	209	164	39	200	217	218	200	187	185	189	0	
1:25:23 PM	49	192	209	165	39	199	217	217	196	183	184	188	0	
1:25:23 PM	47	190	209	166	38	198	216	215	191	178	182	186	0	
1:25:23 PM	45	187	208	169	37	196	215	211	185	173	178	183	0	
1:25:23 PM	42	183	207	173	36	194	214	207	178	167	174	181	0	
1:25:23 PM	38	178	205	177	35	191	212	203	172	163	171	178	0	
1:25:23 PM	36	175	204	179	34	189	212	202	170	161	169	177	0	
1:25:23 PM	35	174	204	180	34	188	212	202	170	161	169	177	0	
1:25:23 PM	35	173	204	181	34	188	212	202	170	161	169	177	0	
1:25:23 PM	35	173	204	181	34	188	212	202	170	161	169	177	0	
1:25:23 PM	35	173	204	181	34	188	212	202	170	161	169	177	0	
1:25:23 PM	35	173	204	181	34	188	212	202	170	161	169	177	0	
1:25:23 PM	35	173	204	181	34	188	212	202	170	161	169	177	0	
1:25:23 PM	35	173	204	181	34	188	212	202	170	161	169	177	0	
1:25:23 PM	35	173	204	181	34	188	212	202	170	161	169	177	0	
1:25:23 PM	35	173	204	181	34	188	212	202	170	161	169	177	0	
1:25:23 PM	35	173	204	181	34	188	212	202	170	161	169	177	0	
1:25:23 PM	35	173	204	181	34	188	212	202	170	161	169	177	0	
1:25:23 PM	35	173	204	181	34	188	212	202	170	161	169	177	0	
1:25:23 PM	35	173	204	181	34	187	212	202	170	161	169	177	0	
1:25:23 PM	35	173	204	181	34	188	212	202	170	161	169	177	0	
1:25:23 PM	35	173	204	181	34	188	212	202	170	161	169	177	0	
1:25:23 PM	35	173	204	181	34	188	212	202	170	161	169	177	0	
1:25:23 PM	35	173	204	181	34	188	212	202	170	161	169	177	0	
1:25:23 PM	35	173	204	181	34	188	212	202	170	161	169	177	0	
1:25:23 PM	35	173	204	181	34	188	212	202	170	161	169	177	0	
1:25:23 PM	35	174	204	181	34	188	212	202	170	161	169	177	0	
1:25:23 PM	35	173	204	181	34	188	212	202	170	161	169	177	0	
1:25:23 PM	35	173	204	181	34	188	212	202	170	161	169	177	0	
1:25:23 PM	35	173	204	181	34	188	212	202	170	162	169	177	0	
1:25:23 PM	35	174	204	180	34	188	212	203	173	164	172	178	0	
1:25:23 PM	37	176	204	179	35	189	212	206	176	167	175	181	0	
1:25:23 PM	40	180	206	175	35	192	213	207	178	169	176	183	0	
1:25:23 PM	42	182	206	173	36	193	214	208	178	169	177	183	0	
1:25:23 PM	43	183	206	172	37	194	214	207	178	169	176	183	0	
1:25:23 PM	42	182	206	173	36	193	214	206	176	167	175	181	0	
1:25:23 PM	39	179	206	176	35	192	213	203	173	164	172	179	0	
1:25:23 PM	37	176	204	179	35	189	212	202	171	162	169	177	0	
1:25:23 PM	36	174	204	180	34	188	212	202	170	161	169	177	0	
1:25:23 PM	35	173	204	181	34	188	212	202	170	161	169	177	0	
1:25:23 PM	35	173	204	181	34	188	212	202	170	161	169	177	0	
1:25:23 PM	35	173	204	181	34	188	212	202	170	161	169	177	0	
1:25:23 PM	35	173	204	181	34	188	212	202	170	161	169	177	0	
1:25:23 PM	35	173	204	181	34	188	212	202	170	161	169	177	0	
1:25:23 PM	35	173	204	181	34	188	212	202	170	161	169	177	0	
1:25:23 PM	35	173	204	181	34	187	212	202	170	161	168	177	0	
1:25:23 PM	35	173	204	181	34	187	212	203	170	160	166	174	0	
1:25:23 PM	33	171	204	183	33	186	214	212	190	176	175	181	0	
1:25:23 PM	37	179	208	177	33	192	219	222	221	214	207	206	0	
1:25:23 PM	54	206	218	155	36	211	220	201	206	218	222	222	0	
1:25:23 PM	65	223	223	141	39	222	203	156	150	178	197	205	0	
1:25:23 PM	55	204	214	156	39	208	179	153	137	151	171	182	0	
1:25:23 PM	39	178	205	176	36	190	183	186	160	154	166	176	0	
1:25:23 PM	34	171	203	182	34	186	204	201	170	161	169	177	0	
1:25:23 PM	35	173	204	181	34	187	211	202	170	161	169	177	0	
1:25:23 PM	35	173	204	181	34	188	212	202	170	161	169	177	0	
1:25:23 PM	35	173	204	181	34	188	212	202	170	161	169	177	0	
1:25:23 PM	35	173	204	181	34	188	212	202	170	161	169	177	0	
1:25:23 PM	35	173	204	181	34	188	212	202	170	161	169	177	0	
1:25:23 PM	35	173	204	181	34	188	212	202	170	161	169	177	0	
1:25:23 PM	35	173	204	181	34	188	212	202	170	161	169	177	0	
1:25:23 PM	35	173	204	181	34	188	212	202	170	161	169	177	0	
1:25:23 PM	35	173	204	181	34	188	212	202	170	161	169	177	0	
1:25:23 PM	35	173	204	181	34	187	212	202	170	161	169	177	0	
1:25:23 PM	35	173	204	181	34	188	212	202	170	161	169	177	0	
1:25:23 PM	35	173	204	181	34	188	212	202	171	161	169	177	0	
1:25:23 PM	35	174	204	181	34	188	212	202	173	163	170	178	0	
1:25:23 PM	36	175	204	179	35	188	212	204	178	167	171	180	0	
1:25:23 PM	38	178	205	177	35	190	213	207	184	172	174	182	0	
1:25:23 PM	41	181	206	174	36	193	214	210	190	177	177	184	0	
1:25:23 PM	44	185	207	171	37	195	215	213	195	182	181	186	0	
1:25:23 PM	46	188	208	168	38	197	215	216	199	185	183	188	0	
1:25:23 PM	47	191	209	166	38	199	216	218	202	188	185	189	0	
1:25:23 PM	49	192	209	164	38	200	216	218	203	189	185	190	0	
1:25:23 PM	50	193	209	164	39	200	217	218	203	189	185	189	0	
1:25:23 PM	50	193	209	164	39	200	217	218	201	187	185	189	0	
1:25:23 PM	49	192	208	165	39	199	217	217	196	184	184	188	0	
1:25:23 PM	47	190	209	166	38	198	216	215	191	179	182	186	0	
1:25:23 PM	45	187	208	169	37	196	215	211	185	173	179	184	0	
1:25:23 PM	42	183	207	173	36	194	214	207	178	168	175	181	0	
1:25:23 PM	38	179	206	176	35	191	213	204	173	163	171	178	0	
1:25:23 PM	36	175	204	179	34	189	212	202	170	161	169	177	0	
1:25:23 PM	35	174	204	180	34	188	212	202	170	161	169	177	0	
1:25:23 PM	35	173	204	181	34	188	212	202	170	161	169	177	0	
1:25:23 PM	35	173	204	181	34	188	212	202	170	161	169	177	0	
1:25:23 PM	35	173	204	181	34	188	212	202	170	161	169	177	0	
1:25:23 PM	35	173	204	181	34	187	212	202	170	161	169	177	0	
1:25:23 PM	35	173	204	181	34	188	212	202	170	161	169	177	0	
1:25:23 PM	35	173	204	181	34	188	212	202	170	161	169	177	0	
1:25:23 PM	35	173	204	181	34	188	212	202	170	161	169	177	0	
1:25:23 PM	35	173	204	181	34	188	212	202	170	161	169	177	0	
1:25:24 PM	35	173	204	181	34	188	212	202	170	161	169	177	0	
1:25:24 PM	35	173	204	181	34	188	212	202	170	161	169	177	0	
1:25:24 PM	35	173	204	181	34	188	212	202	170	161	169	177	0	
1:25:24 PM	35	173	204	181	34	188	212	202	170	161	169	177	0	
1:25:24 PM	35	173	204	181	34	188	212	202	170	161	169	177	0	
1:25:24 PM	35	173	204	181	34	188	212	202	170	161	169	177	0	
1:25:24 PM	35	174	204	181	34	188	212	202	170	161	169	177	0	
1:25:24 PM	35	174	204	181	34	188	212	202	170	161	169	177	0	
1:25:24 PM	35	173	204	181	34	188	212	202	170	161	169	177	0	
1:25:24 PM	35	173	204	181	34	188	212	202	170	161	169	177	0	
1:25:24 PM	35	174	204	181	34	188	212	202	170	161	169	177	0	
1:25:24 PM	35	173	204	181	34	188	212	202	170	161	169	177	0	
1:25:24 PM	35	173	204	181	34	188	212	202	170	161	169	177	0	
1:25:24 PM	35	173	204	181	34	188	212	202	170	162	169	177	0	
1:25:24 PM	35	174	204	181	34	188	212	203	172	164	171	178	0	
1:25:24 PM	37	175	204	179	35	189	212	206	176	167	175	181	0	
1:25:24 PM	39	179	206	176	35	192	213	207	178	169	176	183	0	
1:25:24 PM	42	182	206	173	36	193	214	208	178	169	177	183	0	
1:25:24 PM	42	183	206	172	37	194	214	208	178	169	177	183	0	
1:25:24 PM	42	182	206	173	36	193	214	206	177	167	175	181	0	
1:25:24 PM	39	180	206	176	35	192	213	203	174	164	172	179	0	
1:25:24 PM	37	176	205	179	35	189	212	202	171	162	169	177	0	
1:25:24 PM	35	174	204	180	34	188	212	202	170	161	169	177	0	
1:25:24 PM	35	173	204	181	34	188	212	202	170	161	169	177	0	
1:25:24 PM	35	173	204	181	34	188	212	202	170	161	169	177	0	
1:25:24 PM	35	173	204	181	34	188	212	202	170	161	169	177	0	
1:25:24 PM	35	173	204	181	34	188	212	202	170	161	169	177	0	
1:25:24 PM	35	173	204	181	34	188	212	202	170	161	169	177	0	
1:25:24 PM	35	173	204	181	34	188	212	202	170	161	169	177	0	
1:25:24 PM	35	173	204	181	34	188	212	202	170	161	168	177	0	
1:25:24 PM	35	173	204	181	34	187	212	202	170	159	166	174	0	
1:25:24 PM	33	171	204	183	33	187	213	211	188	174	174	179	0	
1:25:24 PM	36	178	207	178	33	192	219	223	220	211	205	204	0	
1:25:24 PM	52	204	217	157	36	210	221	204	209	220	223	222	0	
1:25:24 PM	65	223	223	141	39	222	205	158	153	181	199	207	0	
1:25:24 PM	56	206	215	154	39	210	180	151	136	151	172	183	0	
1:25:24 PM	40	179	205	175	36	191	182	184	159	153	166	176	0	
1:25:24 PM	34	171	203	182	34	186	203	200	169	161	169	177	0	
1:25:24 PM	35	173	203	181	34	187	211	202	170	161	169	177	0	
1:25:24 PM	35	173	204	181	34	188	212	202	170	161	169	177	0	
1:25:24 PM	35	173	204	181	34	188	212	202	170	161	169	177	0	
1:25:24 PM	35	173	204	181	34	188	212	202	170	161	169	177	0	
1:25:24 PM	35	173	204	181	34	188	212	202	170	161	169	177	0	
1:25:24 PM	35	173	204	181	34	188	212	202	170	161	169	177	0	
1:25:24 PM	35	173	204	181	34	188	212	202	170	161	169	177	0	
1:25:24 PM	35	173	204	181	34	188	212	202	170	161	169	177	0	
1:25:24 PM	35	173	204	181	34	188	212	202	170	161	169	177	0	
1:25:24 PM	35	173	204	181	34	188	212	202	170	161	169	177	0	
1:25:24 PM	35	173	204	181	34	188	212	202	170	161	169	177	0	
1:25:24 PM	35	173	204	181	34	188	212	202	171	161	169	177	0	
1:25:24 PM	35	173	204	181	34	188	212	202	173	163	169	178	0	
1:25:24 PM	36	175	204	180	35	188	212	204	178	167	171	179	0	
1:25:24 PM	38	177	205	177	35	190	213	207	184	172	174	182	0	
1:25:24 PM	41	181	206	174	36	192	214	210	189	177	177	184	0	
1:25:24 PM	43	185	207	171	37	195	215	213	195	181	180	186	0	
1:25:24 PM	46	188	208	168	38	197	215	216	199	185	183	188	0	
1:25:24 PM	47	190	209	166	38	199	216	218	202	187	185	189	0	
1:25:24 PM	49	192	209	165	38	200	216	218	203	189	185	190	0	
1:25:24 PM	50	193	209	164	39	200	217	218	203	189	185	189	0	
1:25:24 PM	50	193	209	164	39	200	217	218	201	187	186	189	0	
1:25:24 PM	49	192	209	164	39	199	217	217	197	184	184	188	0	
1:25:24 PM	47	190	208	166	38	198	216	215	192	179	182	186	0	
1:25:24 PM	45	187	208	169	37	197	215	212	186	174	179	184	0	
1:25:24 PM	42	183	207	172	36	194	214	208	179	168	175	181	0	
1:25:24 PM	39	179	206	176	35	191	213	204	173	163	171	179	0	
1:25:24 PM	36	175	205	179	34	189	212	202	171	161	169	177	0	
1:25:24 PM	35	174	204	180	34	188	212	202	170	161	169	177	0	
1:25:24 PM	35	173	204	181	34	188	212	202	170	161	169	177	0	
1:25:24 PM	35	173	204	181	34	188	212	202	170	161	169	177	0	
1:25:24 PM	35	173	204	181	34	188	212	202	170	161	169	177	0	
1:25:24 PM	35	173	204	181	34	188	212	202	170	161	169	177	0	
1:25:24 PM	35	173	204	181	34	188	212	202	170	161	169	177	0	
1:25:24 PM	35	173	204	181	34	188	212	202	170	161	169	177	0	
1:25:24 PM	35	173	204	181	34	188	212	202	170	161	169	177	0	
1:25:24 PM	35	173	204	181	34	188	212	202	170	161	169	177	0	
1:25:24 PM	35	173	204	181	34	188	212	202	170	161	169	177	0	
1:25:24 PM	35	173	204	181	34	188	212	202	170	161	169	177	0	
1:25:24 PM	35	173	204	181	34	188	212	202	170	161	169	177	0	
1:25:24 PM	35	173	204	181	34	188	212	202	170	161	169	177	0	
1:25:24 PM	35	174	204	181	34	188	212	202	170	161	169	177	0	
1:25:24 PM	35	174	204	181	34	188	212	202	170	161	169	177	0	
1:25:24 PM	35	173	204	181	34	188	212	202	170	161	169	177	0	
1:25:24 PM	35	173	204	181	34	188	212	202	170	161	169	177	0	
1:25:24 PM	35	173	204	181	34	188	212	202	170	161	169	177	0	
1:25:24 PM	35	174	204	181	34	188	212	202	170	161	169	177	0	
1:25:24 PM	35	174	204	181	34	188	212	202	170	161	169	177	0	
1:25:24 PM	35	173	204	181	34	188	212	202	170	161	169	177	0	
1:25:24 PM	35	174	204	181	34	188	212	202	170	161	169	177	0	
1:25:24 PM	35	173	204	181	34	188	212	202	170	161	169	177	0	
1:25:24 PM	35	174	204	181	34	188	212	203	172	163	171	178	0	
1:25:24 PM	36	175	204	179	35	189	212	205	176	167	174	181	0	
1:25:24 PM	39	179	206	176	35	191	213	207	178	168	176	182	0	
1:25:24 PM	41	182	206	173	36	193	214	208	178	169	177	183	0	
1:25:24 PM	43	183	206	172	37	194	214	208	178	169	176	183	0	
1:25:24 PM	42	182	206	173	36	193	214	206	177	167	175	182	0	
1:25:24 PM	39	180	206	175	35	192	213	204	174	164	172	179	0	
1:25:24 PM	37	176	205	178	35	189	212	202	171	162	170	177	0	
1:25:24 PM	36	174	204	180	34	188	212	202	170	161	169	177	0	
1:25:24 PM	35	173	204	181	34	188	212	202	170	161	169	177	0	
1:25:24 PM	35	173	204	181	34	188	212	202	170	161	169	177	0	
1:25:25 PM	35	173	204	181	34	188	212	202	170	161	169	177	0	
1:25:25 PM	35	173	204	181	34	188	212	202	170	161	169	177	0	
1:25:25 PM	35	173	204	181	34	188	212	202	170	161	169	177	0	
1:25:25 PM	35	174	204	181	34	188	212	202	170	161	169	177	0	
1:25:25 PM	35	173	204	181	34	188	212	202	170	161	169	177	0	
1:25:25 PM	35	173	204	181	34	187	212	202	169	159	166	174	0	
1:25:25 PM	33	171	204	183	33	187	213	210	186	172	172	178	0	
1:25:25 PM	35	177	207	179	33	191	218	222	218	209	202	202	0	
1:25:25 PM	51	202	216	159	36	208	221	207	212	221	222	221	0	
1:25:25 PM	65	223	223	141	39	222	207	161	157	185	202	209	0	
1:25:25 PM	57	208	216	152	39	211	181	150	135	152	173	185	0	
1:25:25 PM	41	181	206	174	36	192	180	182	157	153	166	176	0	
1:25:25 PM	34	171	203	182	34	186	202	200	169	161	168	177	0	
1:25:25 PM	35	173	203	181	34	187	211	202	170	161	169	177	0	
1:25:25 PM	35	174	204	181	34	188	212	202	170	161	169	177	0	
1:25:25 PM	35	174	204	181	34	188	212	202	170	161	169	177	0	
1:25:25 PM	35	173	204	181	34	188	212	202	170	161	169	177	0	
1:25:25 PM	35	173	204	181	34	188	212	202	170	161	169	177	0	
1:25:25 PM	35	173	204	181	34	188	212	202	170	161	169	177	0	
1:25:25 PM	35	173	204	181	34	188	212	202	170	161	169	177	0	
1:25:25 PM	35	173	204	181	34	188	212	202	170	161	169	177	0	
1:25:25 PM	35	173	204	181	34	188	212	202	170	161	169	177	0	
1:25:25 PM	35	173	204	181	34	188	212	202	170	161	169	177	0	
1:25:25 PM	35	173	204	181	34	188	212	202	170	161	169	177	0	
1:25:25 PM	35	173	204	181	34	188	212	202	170	161	169	177	0	
1:25:25 PM	35	174	204	181	34	188	212	202	173	163	169	178	0	
1:25:25 PM	36	175	204	180	34	188	212	204	177	166	171	179	0	
1:25:25 PM	38	177	205	177	35	190	213	207	183	171	174	182	0	
1:25:25 PM	41	181	206	174	36	192	214	210	189	176	177	184	0	
1:25:25 PM	43	184	207	171	37	195	214	213	194	181	180	186	0	
1:25:25 PM	46	188	208	168	38	197	215	216	198	185	183	188	0	
1:25:25 PM	47	190	209	166	38	198	216	218	201	187	185	189	0	
1:25:25 PM	49	192	209	165	38	199	216	218	203	189	185	190	0	
1:25:25 PM	50	193	209	164	39	200	217	218	203	189	185	190	0	
1:25:25 PM	50	193	209	164	39	200	217	218	201	188	186	189	0	
1:25:25 PM	49	192	209	164	39	199	217	217	197	184	184	188	0	
1:25:25 PM	48	191	209	166	38	199	216	215	192	180	182	186	0	
1:25:25 PM	45	188	208	169	37	197	215	212	186	174	179	184	0	
1:25:25 PM	42	184	207	172	36	194	214	208	179	168	175	181	0	
1:25:25 PM	39	179	206	176	35	191	213	204	173	163	171	179	0	
1:25:25 PM	36	175	205	179	34	189	212	202	171	161	169	177	0	
1:25:25 PM	35	174	204	180	34	188	212	202	170	161	169	177	0	
1:25:25 PM	35	173	204	181	34	188	212	202	170	161	169	177	0	
1:25:25 PM	35	173	204	181	34	188	212	202	170	161	169	177	0	
1:25:25 PM	35	173	204	181	34	188	212	202	170	161	169	177	0	
1:25:25 PM	35	173	204	181	34	188	212	202	170	161	169	177	0	
1:25:25 PM	35	173	204	181	34	188	212	202	170	161	169	177	0	
