MEDLAB ECG Data : C:\Users\jidan\OneDrive\Documents\TA ITERA\ecg\log1-10-23--0'10''0'''.log
File created: 1/10/2023 1:37:42 PM

TIME    	I	II	III	VR	VL	VF	C1	C2	C3	C4	C5	C6	RESP

1:27:18 PM	124	123	126	131	127	124	127	139	148	143	135	133	0	
1:27:18 PM	124	123	126	131	127	125	127	125	122	122	124	124	0	
1:27:18 PM	125	123	126	131	127	125	127	125	122	122	124	124	0	
1:27:18 PM	125	123	126	131	127	125	127	125	122	122	124	125	0	
1:27:18 PM	125	123	126	131	127	125	127	125	122	123	124	125	0	
1:27:18 PM	125	124	126	130	127	125	127	126	123	123	124	125	0	
1:27:18 PM	125	124	126	130	127	125	127	126	123	123	124	125	0	
1:27:18 PM	125	124	126	130	127	125	127	126	123	123	124	125	0	
1:27:18 PM	125	124	126	130	127	125	127	126	123	123	124	125	0	
1:27:18 PM	125	124	126	130	127	125	127	126	123	123	125	125	0	
1:27:19 PM	125	124	126	130	127	125	127	127	125	125	126	126	0	
1:27:19 PM	126	126	127	129	127	126	127	129	128	129	130	128	0	
1:27:19 PM	129	129	128	126	128	129	128	131	130	130	132	130	0	
1:27:19 PM	131	133	129	123	128	131	129	132	131	131	132	131	0	
1:27:19 PM	132	134	129	122	129	131	130	131	130	131	132	131	0	
1:27:19 PM	132	133	129	122	129	131	129	130	130	130	131	129	0	
1:27:19 PM	129	131	128	125	128	129	128	127	127	127	128	127	0	
1:27:19 PM	127	127	127	128	127	127	127	126	124	124	125	125	0	
1:27:19 PM	125	124	126	130	127	125	127	125	123	123	124	125	0	
1:27:19 PM	125	124	126	130	127	125	127	125	123	123	124	125	0	
1:27:19 PM	125	124	126	130	127	125	127	125	123	123	124	125	0	
1:27:19 PM	125	124	126	130	127	125	127	126	123	124	124	125	0	
1:27:19 PM	125	124	126	130	127	125	127	126	124	124	125	125	0	
1:27:19 PM	125	124	126	130	127	125	127	126	124	124	125	125	0	
1:27:19 PM	125	124	126	130	127	125	127	126	124	124	125	125	0	
1:27:19 PM	125	124	126	130	127	125	127	126	124	124	124	125	0	
1:27:19 PM	125	124	126	130	127	125	127	126	123	122	122	123	0	
1:27:19 PM	124	123	126	131	126	125	128	132	136	132	127	125	0	
1:27:19 PM	125	126	129	129	125	128	132	145	168	166	153	146	0	
1:27:19 PM	138	148	137	111	128	143	137	135	167	183	176	168	0	
1:27:19 PM	153	171	145	92	131	158	125	90	115	151	160	158	0	
1:27:19 PM	148	160	140	100	132	150	99	73	87	114	128	132	0	
1:27:19 PM	131	131	128	124	129	130	95	104	107	111	118	121	0	
1:27:19 PM	123	119	124	134	127	122	116	126	122	120	121	122	0	
1:27:19 PM	123	121	125	133	126	123	128	129	124	121	122	123	0	
1:27:19 PM	124	122	125	132	127	124	129	129	124	122	122	123	0	
1:27:19 PM	124	122	125	132	127	124	129	129	124	122	122	123	0	
1:27:19 PM	124	122	125	131	127	124	129	129	124	122	122	123	0	
1:27:19 PM	124	122	125	131	127	124	129	129	124	122	123	123	0	
1:27:19 PM	124	123	126	131	127	124	129	129	125	122	123	124	0	
1:27:19 PM	124	123	126	131	127	124	129	129	125	123	123	124	0	
1:27:19 PM	125	123	126	131	127	124	129	129	125	123	123	124	0	
1:27:19 PM	125	123	126	131	127	124	129	128	125	123	123	124	0	
1:27:19 PM	125	123	126	131	127	124	129	128	125	123	123	124	0	
1:27:19 PM	125	123	126	131	127	125	129	128	125	123	124	124	0	
1:27:19 PM	125	123	126	131	127	125	129	128	125	123	124	124	0	
1:27:19 PM	125	124	126	130	127	125	129	129	127	125	124	125	0	
1:27:19 PM	126	125	126	130	127	125	129	130	131	128	126	126	0	
1:27:19 PM	127	127	127	127	128	127	129	132	137	133	128	129	0	
1:27:19 PM	130	131	128	124	128	129	130	135	142	138	131	131	0	
1:27:19 PM	132	134	129	121	129	131	131	138	147	142	134	133	0	
1:27:19 PM	135	137	130	119	130	133	132	141	151	145	137	134	0	
1:27:19 PM	136	139	131	117	130	135	132	142	153	147	139	135	0	
1:27:19 PM	137	141	131	116	130	136	132	142	154	148	139	136	0	
1:27:19 PM	138	141	131	115	131	136	133	142	153	148	139	136	0	
1:27:19 PM	138	141	131	115	131	136	133	142	151	146	138	135	0	
1:27:19 PM	137	140	130	116	131	135	132	140	146	142	137	134	0	
1:27:19 PM	135	138	130	118	130	134	131	138	141	137	135	132	0	
1:27:19 PM	133	135	130	121	129	132	130	134	135	132	132	129	0	
1:27:19 PM	130	131	128	125	128	130	129	130	127	126	127	127	0	
1:27:19 PM	126	126	127	128	127	127	128	126	121	121	124	124	0	
1:27:19 PM	124	123	126	131	126	124	127	124	118	119	122	123	0	
1:27:19 PM	123	121	125	133	126	123	127	124	118	119	121	123	0	
1:27:19 PM	123	121	125	133	126	123	127	124	119	119	121	123	0	
1:27:19 PM	123	121	125	133	126	123	127	124	119	119	122	123	0	
1:27:19 PM	123	121	125	133	126	123	127	124	119	120	122	123	0	
1:27:19 PM	123	121	125	132	126	123	127	124	119	120	122	123	0	
1:27:19 PM	123	121	126	132	126	123	127	124	120	120	122	123	0	
1:27:19 PM	123	122	126	132	126	124	127	125	120	120	122	123	0	
1:27:19 PM	124	122	126	132	126	124	127	125	120	121	123	124	0	
1:27:19 PM	124	122	126	132	126	124	127	125	120	121	123	124	0	
1:27:19 PM	124	122	126	132	126	124	127	125	121	121	123	124	0	
1:27:19 PM	124	122	126	131	126	124	127	125	121	121	123	124	0	
1:27:19 PM	124	123	126	131	126	124	127	125	121	122	123	124	0	
1:27:19 PM	124	123	126	131	126	124	127	125	121	122	123	124	0	
1:27:19 PM	124	123	126	131	126	124	127	125	122	122	123	124	0	
1:27:19 PM	124	123	126	131	127	124	127	125	122	122	124	124	0	
1:27:19 PM	124	123	126	131	127	125	127	125	122	122	124	125	0	
1:27:19 PM	125	123	126	131	127	125	127	125	122	122	124	125	0	
1:27:19 PM	125	123	126	131	127	125	127	125	122	123	124	125	0	
1:27:19 PM	125	124	126	131	127	125	127	126	123	123	124	125	0	
1:27:19 PM	125	124	126	130	127	125	127	126	123	123	124	125	0	
1:27:19 PM	125	124	126	130	127	125	127	126	123	123	124	125	0	
1:27:19 PM	125	124	126	130	127	125	127	126	123	123	124	125	0	
1:27:19 PM	125	124	126	130	127	125	127	126	123	123	125	125	0	
1:27:19 PM	125	124	126	130	127	125	127	127	125	125	126	126	0	
1:27:19 PM	126	126	127	129	127	126	127	129	128	128	129	128	0	
1:27:19 PM	128	129	128	126	128	128	128	131	130	130	131	130	0	
1:27:19 PM	131	132	129	123	128	131	129	132	131	131	132	131	0	
1:27:19 PM	132	134	129	122	129	131	129	131	130	131	132	131	0	
1:27:19 PM	132	133	129	122	129	131	129	130	130	130	131	130	0	
1:27:19 PM	130	131	128	125	128	130	128	127	127	127	128	127	0	
1:27:19 PM	127	127	127	128	127	127	127	126	124	124	125	125	0	
1:27:19 PM	125	124	126	130	127	125	127	125	123	123	124	125	0	
1:27:19 PM	125	124	126	130	127	125	127	125	123	123	124	125	0	
1:27:19 PM	125	124	126	130	127	125	127	125	123	124	124	125	0	
1:27:19 PM	125	124	126	130	127	125	127	126	124	124	124	125	0	
1:27:19 PM	125	124	126	130	127	125	127	126	124	124	125	125	0	
1:27:19 PM	125	124	126	130	127	125	127	126	124	124	125	125	0	
1:27:19 PM	125	124	126	130	127	125	127	126	124	124	125	125	0	
1:27:19 PM	125	124	126	130	127	125	127	126	124	124	125	125	0	
1:27:19 PM	125	124	126	130	127	125	127	126	123	122	123	123	0	
1:27:19 PM	124	123	126	131	126	125	128	131	135	130	125	125	0	
1:27:19 PM	124	125	128	130	125	127	132	145	166	163	150	144	0	
1:27:19 PM	137	146	137	113	128	141	137	137	169	183	176	167	0	
1:27:19 PM	153	171	145	93	131	158	126	93	120	154	162	160	0	
1:27:19 PM	149	162	141	99	132	152	100	73	87	115	130	134	0	
1:27:19 PM	132	133	128	123	129	131	94	101	105	110	118	122	0	
1:27:19 PM	123	119	124	134	127	122	115	125	122	120	121	122	0	
1:27:19 PM	123	121	125	133	126	123	128	129	124	121	122	123	0	
1:27:20 PM	124	122	125	132	127	124	129	129	124	122	122	123	0	
1:27:20 PM	124	122	125	132	127	124	129	129	124	122	122	123	0	
1:27:20 PM	124	122	125	131	127	124	129	129	124	122	122	123	0	
1:27:20 PM	124	122	125	131	127	124	129	129	124	122	123	123	0	
1:27:20 PM	124	122	126	131	127	124	129	129	125	122	123	124	0	
1:27:20 PM	124	123	126	131	127	124	129	129	125	123	123	124	0	
1:27:20 PM	124	123	126	131	127	124	129	129	125	123	123	124	0	
1:27:20 PM	125	123	126	131	127	124	129	128	125	123	123	124	0	
1:27:20 PM	125	123	126	131	127	124	129	128	125	123	123	124	0	
1:27:20 PM	125	123	126	131	127	125	129	128	125	123	124	124	0	
1:27:20 PM	125	123	126	131	127	125	129	128	125	123	124	124	0	
1:27:20 PM	125	124	126	130	127	125	128	129	127	125	124	125	0	
1:27:20 PM	126	125	126	130	127	125	129	130	131	128	125	126	0	
1:27:20 PM	127	127	127	128	128	127	129	132	136	132	128	128	0	
1:27:20 PM	130	130	128	125	128	129	130	135	142	137	131	131	0	
1:27:20 PM	132	134	129	122	129	131	131	138	147	142	134	133	0	
1:27:20 PM	135	137	130	119	130	133	132	141	150	145	137	134	0	
1:27:20 PM	136	139	131	117	130	135	132	142	153	147	139	135	0	
1:27:20 PM	137	141	131	116	130	136	132	142	154	148	139	136	0	
1:27:20 PM	138	141	131	115	131	136	133	142	153	148	139	136	0	
1:27:20 PM	138	141	131	115	131	136	133	142	151	146	138	135	0	
1:27:20 PM	137	140	130	116	131	135	132	140	146	143	137	134	0	
1:27:20 PM	135	138	130	118	130	134	132	138	141	138	135	132	0	
1:27:20 PM	133	135	130	121	129	132	130	135	135	132	132	130	0	
1:27:20 PM	130	131	129	124	128	130	129	130	128	126	128	127	0	
1:27:20 PM	127	127	127	128	127	127	128	126	122	121	124	124	0	
1:27:20 PM	124	123	126	131	126	125	127	124	118	119	122	123	0	
1:27:20 PM	123	121	125	133	126	123	127	124	118	119	121	123	0	
1:27:20 PM	123	121	125	133	126	123	127	124	119	119	121	123	0	
1:27:20 PM	123	121	125	133	126	123	127	124	119	119	122	123	0	
1:27:20 PM	123	121	125	133	126	123	127	124	119	120	122	123	0	
1:27:20 PM	123	121	125	132	126	123	127	124	119	120	122	123	0	
1:27:20 PM	123	121	125	132	126	123	127	124	120	120	122	123	0	
1:27:20 PM	123	122	126	132	126	124	127	124	120	120	122	123	0	
1:27:20 PM	124	122	126	132	126	124	127	125	120	121	123	124	0	
1:27:20 PM	124	122	126	132	126	124	127	125	121	121	123	124	0	
1:27:20 PM	124	122	126	132	126	124	127	125	121	121	123	124	0	
1:27:20 PM	124	122	126	132	126	124	127	125	121	121	123	124	0	
1:27:20 PM	124	122	126	131	126	124	127	125	121	122	123	124	0	
1:27:20 PM	124	123	126	131	126	124	127	125	121	122	123	124	0	
1:27:20 PM	124	123	126	131	126	124	127	125	122	122	123	124	0	
1:27:20 PM	124	123	126	131	127	125	127	125	122	122	124	124	0	
1:27:20 PM	125	123	126	131	127	125	127	125	122	122	124	125	0	
1:27:20 PM	125	123	126	131	127	125	127	125	122	122	124	125	0	
1:27:20 PM	125	124	126	131	127	125	127	125	122	123	124	125	0	
1:27:20 PM	125	124	126	130	127	125	127	125	123	123	124	125	0	
1:27:20 PM	125	124	126	130	127	125	127	126	123	123	124	125	0	
1:27:20 PM	125	124	126	130	127	125	127	126	123	123	124	125	0	
1:27:20 PM	125	124	126	130	127	125	127	126	123	123	124	125	0	
1:27:20 PM	125	124	126	130	127	125	127	126	123	123	125	125	0	
1:27:20 PM	125	124	126	130	127	125	127	127	125	125	126	126	0	
1:27:20 PM	126	125	127	129	127	126	127	129	128	128	129	128	0	
1:27:20 PM	128	129	128	126	128	128	128	131	130	130	131	130	0	
1:27:20 PM	131	132	129	123	128	131	129	132	131	131	132	131	0	
1:27:20 PM	132	134	129	122	129	131	129	131	131	131	132	131	0	
1:27:20 PM	132	133	129	122	129	131	129	130	130	130	131	130	0	
1:27:20 PM	130	131	129	124	128	130	128	128	127	127	128	127	0	
1:27:20 PM	127	127	127	127	127	127	127	126	124	124	125	125	0	
1:27:20 PM	125	124	126	130	127	125	127	125	123	123	124	125	0	
1:27:20 PM	125	124	126	130	127	125	127	125	123	123	124	125	0	
1:27:20 PM	125	124	126	130	127	125	127	125	123	124	124	125	0	
1:27:20 PM	125	124	126	130	127	125	127	126	124	124	124	125	0	
1:27:20 PM	125	124	126	130	127	125	127	126	124	124	124	125	0	
1:27:20 PM	125	124	126	130	127	125	127	126	124	124	125	125	0	
1:27:20 PM	125	124	126	130	127	125	127	126	124	124	125	125	0	
1:27:20 PM	125	124	126	130	127	125	127	126	124	124	125	125	0	
1:27:20 PM	125	124	126	130	127	125	127	125	123	122	123	123	0	
1:27:20 PM	124	123	126	131	126	125	128	130	133	129	124	124	0	
1:27:20 PM	124	125	128	130	125	126	132	144	163	160	148	142	0	
1:27:20 PM	136	144	136	115	127	140	137	138	171	183	175	166	0	
1:27:20 PM	152	170	145	94	131	157	128	96	124	158	164	162	0	
1:27:20 PM	150	164	141	97	132	153	102	73	88	117	131	136	0	
1:27:20 PM	133	135	129	121	129	132	94	99	103	110	118	122	0	
1:27:20 PM	123	120	124	133	127	122	113	125	121	119	121	122	0	
1:27:20 PM	123	120	125	133	126	123	127	129	124	122	122	123	0	
1:27:20 PM	124	122	125	132	127	124	129	129	124	122	122	123	0	
1:27:20 PM	124	122	125	132	127	124	129	129	124	122	122	123	0	
1:27:20 PM	124	122	125	132	127	124	129	129	124	122	122	123	0	
1:27:20 PM	124	122	125	131	127	124	129	129	124	122	123	123	0	
1:27:20 PM	124	122	125	131	127	124	129	129	124	122	123	124	0	
1:27:20 PM	124	123	126	131	127	124	129	129	125	123	123	124	0	
1:27:20 PM	125	123	126	131	127	124	129	129	125	123	123	124	0	
1:27:20 PM	125	123	126	131	127	124	129	128	125	123	123	124	0	
1:27:20 PM	125	123	126	131	127	124	129	128	125	123	123	124	0	
1:27:20 PM	125	123	126	131	127	125	129	128	125	123	124	124	0	
1:27:20 PM	125	123	126	131	127	125	128	128	125	123	124	124	0	
1:27:20 PM	125	124	126	130	127	125	128	129	127	124	124	125	0	
1:27:20 PM	126	124	126	130	127	125	128	130	131	127	125	126	0	
1:27:20 PM	127	127	127	128	128	127	129	132	136	132	128	128	0	
1:27:20 PM	130	130	128	125	128	129	130	135	142	137	130	130	0	
1:27:20 PM	132	134	129	122	129	131	131	138	147	141	134	133	0	
1:27:20 PM	134	137	130	119	130	133	131	141	150	145	137	134	0	
1:27:20 PM	136	139	130	117	130	135	132	142	153	147	138	135	0	
1:27:20 PM	137	141	131	116	130	136	132	142	154	148	139	136	0	
1:27:20 PM	138	141	131	115	131	136	133	142	153	148	139	136	0	
1:27:20 PM	138	141	131	115	131	136	133	142	151	146	138	135	0	
1:27:20 PM	137	140	130	116	131	135	132	140	147	143	137	134	0	
1:27:20 PM	136	138	130	118	130	134	132	138	142	138	135	132	0	
1:27:20 PM	133	135	130	120	129	133	130	135	136	133	132	130	0	
1:27:20 PM	130	131	129	124	128	130	129	131	128	127	128	127	0	
1:27:21 PM	127	127	127	128	127	127	128	127	122	121	124	125	0	
1:27:21 PM	124	123	126	131	126	125	127	124	119	119	122	123	0	
1:27:21 PM	123	121	125	133	126	123	127	124	118	119	121	123	0	
1:27:21 PM	123	120	125	133	126	123	127	124	119	119	121	123	0	
1:27:21 PM	123	121	125	133	126	123	127	124	119	119	122	123	0	
1:27:21 PM	123	121	125	133	126	123	127	124	119	120	122	123	0	
1:27:21 PM	123	121	125	133	126	123	127	124	119	120	122	123	0	
1:27:21 PM	123	121	125	132	126	123	127	124	120	120	122	123	0	
1:27:21 PM	123	122	126	132	126	124	127	124	120	120	122	123	0	
1:27:21 PM	124	122	126	132	126	124	127	125	120	121	123	124	0	
1:27:21 PM	124	122	126	132	126	124	127	125	120	121	123	124	0	
1:27:21 PM	124	122	126	132	126	124	127	125	121	121	123	124	0	
1:27:21 PM	124	122	126	131	126	124	127	125	121	121	123	124	0	
1:27:21 PM	124	123	126	131	126	124	127	125	121	121	123	124	0	
1:27:21 PM	124	123	126	131	126	124	127	125	121	122	123	124	0	
1:27:21 PM	124	123	126	131	126	124	127	125	122	122	123	124	0	
1:27:21 PM	124	123	126	131	127	125	127	125	122	122	124	124	0	
1:27:21 PM	124	123	126	131	127	125	127	125	122	122	124	125	0	
1:27:21 PM	125	123	126	131	127	125	127	125	122	122	124	125	0	
1:27:21 PM	125	123	126	131	127	125	127	125	122	123	124	125	0	
1:27:21 PM	125	124	126	130	127	125	127	125	123	123	124	125	0	
1:27:21 PM	125	124	126	130	127	125	127	126	123	123	124	125	0	
1:27:21 PM	125	124	126	130	127	125	127	126	123	123	124	125	0	
1:27:21 PM	125	124	126	130	127	125	127	126	123	123	124	125	0	
1:27:21 PM	125	124	126	130	127	125	127	126	123	123	125	125	0	
1:27:21 PM	125	124	126	130	127	125	127	126	124	125	126	126	0	
1:27:21 PM	126	125	127	129	127	126	127	128	127	128	129	128	0	
1:27:21 PM	128	128	128	126	128	128	128	131	130	130	131	130	0	
1:27:21 PM	131	132	129	123	128	130	129	132	131	131	132	131	0	
1:27:21 PM	132	134	129	122	129	131	129	131	131	131	132	131	0	
1:27:21 PM	132	133	129	122	129	131	129	130	130	130	131	130	0	
1:27:21 PM	130	131	129	124	128	130	128	128	128	127	128	128	0	
1:27:21 PM	127	128	128	127	127	128	128	126	124	124	125	125	0	
1:27:21 PM	125	124	126	130	127	125	127	125	123	123	124	125	0	
1:27:21 PM	125	124	126	130	127	125	127	125	123	123	124	125	0	
1:27:21 PM	125	124	126	130	127	125	127	125	123	123	124	125	0	
1:27:21 PM	125	124	126	130	127	125	127	126	123	124	124	125	0	
1:27:21 PM	125	124	126	130	127	125	127	126	124	124	125	125	0	
1:27:21 PM	125	124	126	130	127	125	127	126	124	124	125	125	0	
1:27:21 PM	125	124	126	130	127	125	127	126	124	124	125	125	0	
1:27:21 PM	125	124	126	130	127	125	127	126	124	124	125	125	0	
1:27:21 PM	125	124	126	130	127	125	127	125	122	122	123	124	0	
1:27:21 PM	124	123	126	131	126	125	127	130	131	128	124	123	0	
1:27:21 PM	124	124	128	131	125	126	131	143	161	157	145	140	0	
1:27:21 PM	134	142	135	117	127	139	137	140	173	183	175	165	0	
1:27:21 PM	152	169	145	94	131	157	129	100	128	161	167	163	0	
1:27:21 PM	151	166	142	96	132	154	104	72	88	119	133	138	0	
1:27:21 PM	134	136	130	120	129	133	93	96	101	109	118	122	0	
1:27:21 PM	123	120	124	133	127	122	111	124	121	119	121	122	0	
1:27:21 PM	123	120	125	133	126	122	127	129	124	122	122	123	0	
1:27:21 PM	124	122	125	132	127	123	129	129	124	122	122	123	0	
1:27:21 PM	124	122	125	132	127	124	129	129	124	122	122	123	0	
1:27:21 PM	124	122	125	132	127	124	129	129	124	122	122	123	0	
1:27:21 PM	124	122	125	131	127	124	129	129	124	122	123	123	0	
1:27:21 PM	124	122	126	131	127	124	129	129	124	122	123	123	0	
1:27:21 PM	124	123	126	131	127	124	129	129	125	123	123	124	0	
1:27:21 PM	124	123	126	131	127	124	129	129	125	123	123	124	0	
1:27:21 PM	125	123	126	131	127	124	129	128	125	123	123	124	0	
1:27:21 PM	125	123	126	131	127	124	129	128	125	123	123	124	0	
1:27:21 PM	125	123	126	131	127	125	129	128	125	123	124	124	0	
1:27:21 PM	125	123	126	131	127	125	129	128	125	123	124	124	0	
1:27:21 PM	125	123	126	130	127	125	128	129	126	124	124	125	0	
1:27:21 PM	125	124	126	130	127	125	128	130	130	127	125	126	0	
1:27:21 PM	127	126	127	128	127	127	129	132	136	132	128	128	0	
1:27:21 PM	130	130	128	125	128	129	130	135	141	136	130	130	0	
1:27:21 PM	132	133	129	122	129	131	131	138	146	141	134	132	0	
1:27:21 PM	134	136	129	119	130	133	131	141	150	145	137	134	0	
1:27:21 PM	136	139	130	117	130	135	132	142	152	147	138	135	0	
1:27:21 PM	137	141	131	116	130	136	132	142	154	148	139	136	0	
1:27:21 PM	138	141	131	115	131	136	132	142	154	148	139	136	0	
1:27:21 PM	138	141	131	115	131	136	133	142	151	147	138	135	0	
1:27:21 PM	137	140	130	116	131	135	133	141	147	143	137	134	0	
1:27:21 PM	136	139	130	117	130	134	132	138	142	138	135	133	0	
1:27:21 PM	133	136	130	120	129	133	131	135	136	133	133	130	0	
1:27:21 PM	130	132	129	124	128	130	129	131	129	127	129	127	0	
1:27:21 PM	127	127	127	128	127	127	128	127	122	122	124	125	0	
1:27:21 PM	124	123	126	131	126	125	127	124	119	119	122	123	0	
1:27:21 PM	123	121	126	133	126	123	127	124	118	119	121	123	0	
1:27:21 PM	123	120	125	133	126	123	127	124	119	119	121	123	0	
1:27:21 PM	123	121	125	133	126	123	127	124	119	119	122	123	0	
1:27:21 PM	123	121	125	133	126	123	127	124	119	120	122	123	0	
1:27:21 PM	123	121	125	133	126	123	127	124	119	120	122	123	0	
1:27:21 PM	123	121	126	132	126	123	127	124	120	120	122	123	0	
1:27:21 PM	123	122	126	132	126	124	127	124	120	120	122	123	0	
1:27:21 PM	124	122	126	132	126	124	127	125	120	121	123	124	0	
1:27:21 PM	124	122	126	132	126	124	127	125	120	121	123	124	0	
1:27:21 PM	124	122	126	132	126	124	127	125	121	121	123	124	0	
1:27:21 PM	124	122	126	131	126	124	127	125	121	121	123	124	0	
1:27:21 PM	124	123	126	131	126	124	127	125	121	121	123	124	0	
1:27:21 PM	124	123	126	131	127	124	127	125	121	122	123	124	0	
1:27:21 PM	124	123	126	131	126	124	127	125	121	122	123	124	0	
1:27:21 PM	124	123	126	131	127	125	127	125	122	122	124	124	0	
1:27:21 PM	125	123	126	131	127	125	127	125	122	122	124	125	0	
1:27:21 PM	125	123	126	131	127	125	127	125	122	122	124	125	0	
1:27:21 PM	125	123	126	131	127	125	127	125	122	123	124	125	0	
1:27:21 PM	125	124	126	130	127	125	127	125	123	123	124	125	0	
1:27:21 PM	125	124	126	130	127	125	127	126	123	123	124	125	0	
1:27:21 PM	125	124	126	130	127	125	127	126	123	123	124	125	0	
1:27:21 PM	125	124	126	130	127	125	127	126	123	123	124	125	0	
1:27:21 PM	125	124	126	130	127	125	127	126	123	123	125	125	0	
1:27:21 PM	125	124	126	130	127	125	127	126	124	125	126	126	0	
1:27:22 PM	126	125	127	129	127	126	127	128	127	128	129	127	0	
1:27:22 PM	128	128	128	127	127	128	128	130	130	130	131	130	0	
1:27:22 PM	130	132	129	123	128	130	129	132	131	131	132	131	0	
1:27:22 PM	132	134	129	122	129	131	129	131	131	131	132	131	0	
1:27:22 PM	132	133	129	122	129	131	129	130	130	130	131	130	0	
1:27:22 PM	130	131	129	124	128	130	129	128	128	128	129	128	0	
1:27:22 PM	128	128	128	127	127	128	128	126	125	125	125	126	0	
1:27:22 PM	125	125	126	130	127	126	127	125	123	123	124	125	0	
1:27:22 PM	125	124	126	130	127	125	127	125	123	123	124	125	0	
1:27:22 PM	125	124	126	130	127	125	127	126	123	124	124	125	0	
1:27:22 PM	125	124	126	130	127	125	127	126	124	124	124	125	0	
1:27:22 PM	125	124	126	130	127	125	127	126	124	124	124	125	0	
1:27:22 PM	125	124	126	130	127	125	127	126	124	124	125	125	0	
1:27:22 PM	125	124	126	130	127	125	127	126	124	124	125	125	0	
1:27:22 PM	125	124	127	130	127	125	127	126	124	124	125	125	0	
1:27:22 PM	125	125	127	130	127	126	127	125	123	123	123	124	0	
1:27:22 PM	124	123	126	131	126	125	127	129	130	126	123	123	0	
1:27:22 PM	124	124	128	131	125	126	131	142	158	154	143	138	0	
1:27:22 PM	133	140	134	118	127	137	136	142	174	183	173	164	0	
1:27:22 PM	151	168	144	95	131	156	130	104	133	164	169	165	0	
1:27:22 PM	152	168	143	95	132	155	106	72	89	121	135	139	0	
1:27:22 PM	135	139	131	118	130	135	93	93	99	109	119	123	0	
1:27:22 PM	124	121	124	133	127	122	109	123	120	118	120	122	0	
1:27:22 PM	123	120	125	133	126	122	127	129	124	121	122	123	0	
1:27:22 PM	124	122	125	132	127	124	129	129	124	122	122	123	0	
1:27:22 PM	124	122	125	132	127	124	129	129	124	122	122	123	0	
1:27:22 PM	124	122	125	132	127	124	129	129	124	122	122	123	0	
1:27:22 PM	124	122	125	131	127	124	129	129	124	122	123	123	0	
1:27:22 PM	124	122	126	131	127	124	129	129	124	122	123	123	0	
1:27:22 PM	124	123	126	131	127	124	129	129	125	123	123	124	0	
1:27:22 PM	124	123	126	131	127	124	129	129	125	123	123	124	0	
1:27:22 PM	125	123	126	131	127	124	129	128	125	123	123	124	0	
1:27:22 PM	125	123	126	131	127	124	129	128	125	123	123	124	0	
1:27:22 PM	125	123	126	131	127	125	129	128	125	123	123	124	0	
1:27:22 PM	125	123	126	131	127	125	129	128	125	123	124	124	0	
1:27:22 PM	125	124	126	130	127	125	128	129	126	124	124	125	0	
1:27:22 PM	125	124	126	130	127	125	128	129	130	127	125	126	0	
1:27:22 PM	127	126	127	128	127	126	129	132	135	131	127	128	0	
1:27:22 PM	129	130	128	125	128	129	130	134	141	136	130	130	0	
1:27:22 PM	132	133	129	122	129	131	131	137	146	141	133	132	0	
1:27:22 PM	134	136	129	120	130	133	131	140	150	144	136	134	0	
1:27:22 PM	136	139	130	117	130	134	132	142	152	147	138	135	0	
1:27:22 PM	137	140	131	116	130	136	132	142	154	148	139	136	0	
1:27:22 PM	138	141	131	115	131	136	132	142	154	148	139	136	0	
1:27:22 PM	138	141	131	115	131	136	133	142	152	147	138	135	0	
1:27:22 PM	137	140	130	116	131	135	133	141	147	144	138	134	0	
1:27:22 PM	136	139	130	117	130	134	132	139	142	139	136	133	0	
1:27:22 PM	133	136	130	120	129	133	131	136	137	134	133	130	0	
1:27:22 PM	131	132	129	123	128	130	129	132	130	128	129	127	0	
1:27:22 PM	127	128	127	127	127	127	128	127	123	122	125	125	0	
1:27:22 PM	124	124	126	131	126	125	127	124	119	119	122	123	0	
1:27:22 PM	123	121	126	133	126	123	127	124	118	119	121	123	0	
1:27:22 PM	123	120	125	133	126	123	127	124	118	119	121	123	0	
1:27:22 PM	123	121	125	133	126	123	127	124	119	119	122	123	0	
1:27:22 PM	123	121	125	133	126	123	127	124	119	119	122	123	0	
1:27:22 PM	123	121	125	133	126	123	127	124	119	120	122	123	0	
1:27:22 PM	123	121	125	132	126	123	127	124	120	120	122	123	0	
1:27:22 PM	123	122	126	132	126	124	127	124	120	120	122	123	0	
1:27:22 PM	124	122	126	132	126	124	127	125	120	120	122	124	0	
1:27:22 PM	124	122	126	132	126	124	127	125	120	121	123	124	0	
1:27:22 PM	124	122	126	132	126	124	127	125	121	121	123	124	0	
1:27:22 PM	124	122	126	132	126	124	127	125	121	121	123	124	0	
1:27:22 PM	124	123	126	131	126	124	127	125	121	121	123	124	0	
1:27:22 PM	124	123	126	131	127	124	127	125	121	122	123	124	0	
1:27:22 PM	124	123	126	131	127	124	127	125	122	122	123	124	0	
1:27:22 PM	124	123	126	131	127	125	127	125	122	122	124	124	0	
1:27:22 PM	124	123	126	131	127	125	127	125	122	122	124	125	0	
1:27:22 PM	125	123	126	131	127	125	127	125	122	122	124	125	0	
1:27:22 PM	125	123	126	131	127	125	127	125	122	123	124	125	0	
1:27:22 PM	125	124	126	131	127	125	127	126	123	123	124	125	0	
1:27:22 PM	125	124	126	130	127	125	127	126	123	123	124	125	0	
1:27:22 PM	125	124	126	130	127	125	127	126	123	123	124	125	0	
1:27:22 PM	125	124	126	130	127	125	127	126	123	123	124	125	0	
1:27:22 PM	125	124	126	130	127	125	127	126	123	123	125	125	0	
1:27:22 PM	125	124	126	130	127	125	127	126	124	125	126	126	0	
1:27:22 PM	126	125	127	129	127	126	127	128	127	127	128	127	0	
1:27:22 PM	128	128	128	127	127	128	128	130	130	130	131	130	0	
1:27:22 PM	130	132	129	124	128	130	129	132	131	131	132	131	0	
1:27:22 PM	132	134	129	122	129	131	129	131	131	131	132	131	0	
1:27:22 PM	132	133	129	122	129	131	129	131	130	130	131	130	0	
1:27:22 PM	130	132	129	124	128	130	129	128	128	128	129	128	0	
1:27:22 PM	128	128	128	127	127	128	128	126	125	125	126	126	0	
1:27:22 PM	126	125	127	130	127	126	127	125	123	123	124	125	0	
1:27:22 PM	125	124	126	130	127	125	127	125	123	123	124	125	0	
1:27:22 PM	125	124	126	130	127	125	127	125	123	123	124	125	0	
1:27:22 PM	125	124	126	130	127	125	127	126	123	124	124	125	0	
1:27:22 PM	125	124	126	130	127	125	127	126	124	124	124	125	0	
1:27:22 PM	125	124	126	130	127	125	127	126	124	124	125	125	0	
1:27:22 PM	125	124	126	130	127	125	127	126	124	124	125	125	0	
1:27:22 PM	125	124	126	130	127	125	127	126	124	124	125	125	0	
1:27:22 PM	125	125	126	130	127	125	127	126	123	123	124	124	0	
1:27:22 PM	124	124	126	131	126	125	127	129	128	125	122	123	0	
1:27:22 PM	123	123	127	131	125	125	130	141	156	151	140	136	0	
1:27:22 PM	132	138	134	120	126	136	136	143	175	183	172	163	0	
1:27:22 PM	150	166	144	97	130	155	131	108	138	167	171	166	0	
1:27:22 PM	153	169	143	94	132	156	108	73	90	124	137	141	0	
1:27:22 PM	137	141	131	116	130	136	93	90	97	109	119	123	0	
1:27:22 PM	124	121	124	132	127	123	107	121	119	117	120	122	0	
1:27:22 PM	123	120	125	133	126	122	126	129	124	121	122	123	0	
1:27:23 PM	124	122	125	132	127	123	129	129	124	122	122	123	0	
1:27:23 PM	124	122	125	132	127	124	129	129	124	122	122	123	0	
1:27:23 PM	124	122	125	132	127	124	129	129	124	122	122	123	0	
1:27:23 PM	124	122	126	131	127	124	129	129	124	122	123	123	0	
1:27:23 PM	124	122	126	131	127	124	129	129	124	122	123	123	0	
1:27:23 PM	124	123	126	131	127	124	129	129	125	123	123	124	0	
1:27:23 PM	124	123	126	131	127	124	129	129	125	123	123	124	0	
1:27:23 PM	125	123	126	131	127	124	129	129	125	123	123	124	0	
1:27:23 PM	125	123	126	131	127	124	129	129	125	123	123	124	0	
1:27:23 PM	125	123	126	131	127	124	129	128	125	123	123	124	0	
1:27:23 PM	125	123	126	131	127	125	128	128	125	123	124	124	0	
1:27:23 PM	125	124	126	130	127	125	128	128	126	124	124	125	0	
1:27:23 PM	125	124	126	130	127	125	128	129	130	127	125	126	0	
1:27:23 PM	127	126	127	128	127	126	129	132	135	131	127	128	0	
1:27:23 PM	129	129	127	125	128	128	130	134	140	136	130	130	0	
1:27:23 PM	132	133	128	122	129	131	131	137	145	141	133	132	0	
1:27:23 PM	134	136	129	120	130	133	131	140	149	144	136	134	0	
1:27:23 PM	136	139	130	118	130	134	132	142	152	147	138	135	0	
1:27:23 PM	137	140	131	116	130	136	132	142	154	148	139	136	0	
1:27:23 PM	138	141	131	115	131	136	132	142	154	148	139	136	0	
1:27:23 PM	138	141	131	115	131	136	133	142	152	147	138	135	0	
1:27:23 PM	137	140	130	116	131	135	133	141	148	144	138	134	0	
1:27:23 PM	136	139	130	117	130	134	132	139	143	139	136	133	0	
1:27:23 PM	134	136	130	120	129	133	131	136	137	134	133	130	0	
1:27:23 PM	131	132	129	123	128	131	130	132	130	128	129	128	0	
1:27:23 PM	128	128	128	127	127	128	128	128	123	122	125	125	0	
1:27:23 PM	125	124	127	130	126	125	127	125	119	119	122	123	0	
1:27:23 PM	123	121	126	133	126	123	127	124	118	119	121	122	0	
1:27:23 PM	123	120	125	133	126	123	127	124	118	119	121	123	0	
1:27:23 PM	123	121	125	133	126	123	127	124	119	119	122	123	0	
1:27:23 PM	123	121	125	133	126	123	127	124	119	119	122	123	0	
1:27:23 PM	123	121	125	133	126	123	127	124	119	120	122	123	0	
1:27:23 PM	123	121	125	132	126	123	127	124	120	120	122	123	0	
1:27:23 PM	123	122	125	132	126	124	127	125	120	120	122	123	0	
1:27:23 PM	124	122	126	132	126	124	127	125	120	120	123	124	0	
1:27:23 PM	124	122	126	132	126	124	127	125	120	121	123	124	0	
1:27:23 PM	124	122	126	132	126	124	127	125	121	121	123	124	0	
1:27:23 PM	124	122	126	132	126	124	127	125	121	121	123	124	0	
1:27:23 PM	124	123	126	131	126	124	127	125	121	121	123	124	0	
1:27:23 PM	124	123	126	131	127	124	127	125	121	122	123	124	0	
1:27:23 PM	124	123	126	131	127	124	127	125	122	122	123	124	0	
1:27:23 PM	124	123	126	131	127	124	127	125	122	122	124	124	0	
1:27:23 PM	124	123	126	131	127	125	127	125	122	122	124	125	0	
1:27:23 PM	125	123	126	131	127	125	127	125	122	122	124	125	0	
1:27:23 PM	125	123	126	131	127	125	127	125	122	123	124	125	0	
1:27:23 PM	125	124	126	130	127	125	127	125	122	123	124	125	0	
1:27:23 PM	125	124	126	130	127	125	127	126	123	123	124	125	0	
1:27:23 PM	125	124	126	130	127	125	127	126	123	123	124	125	0	
1:27:23 PM	125	124	126	130	127	125	127	126	123	123	124	125	0	
1:27:23 PM	125	124	126	130	127	125	127	126	123	123	125	125	0	
1:27:23 PM	125	124	126	130	127	125	127	126	124	124	125	125	0	
1:27:23 PM	126	125	127	129	127	126	127	128	127	127	128	127	0	
1:27:23 PM	128	128	127	127	127	128	128	130	130	130	131	130	0	
1:27:23 PM	130	131	129	124	128	130	129	131	131	131	132	131	0	
1:27:23 PM	132	133	129	122	129	131	129	131	130	131	132	131	0	
1:27:23 PM	132	133	129	122	129	131	129	131	130	130	131	130	0	
1:27:23 PM	130	132	129	124	128	130	129	128	128	128	129	128	0	
1:27:23 PM	128	128	128	127	127	128	128	126	125	125	126	126	0	
1:27:23 PM	126	125	127	129	127	126	127	125	123	123	124	125	0	
1:27:23 PM	125	124	126	130	127	125	127	125	123	123	124	125	0	
1:27:23 PM	125	124	126	130	127	125	127	125	123	124	124	125	0	
1:27:23 PM	125	124	126	130	127	125	127	126	123	124	124	125	0	
1:27:23 PM	125	124	126	130	127	125	127	126	124	124	125	125	0	
1:27:23 PM	125	124	126	130	127	125	127	126	124	124	125	125	0	
1:27:23 PM	125	124	126	130	127	125	127	126	124	124	125	125	0	
1:27:23 PM	125	124	126	130	127	125	127	126	124	124	125	126	0	
1:27:23 PM	125	124	126	130	127	125	127	126	123	123	124	124	0	
1:27:23 PM	125	124	126	131	126	125	127	128	127	124	122	123	0	
1:27:23 PM	123	123	127	132	125	125	130	140	153	148	138	135	0	
1:27:23 PM	131	136	133	121	126	135	136	144	175	182	170	161	0	
1:27:23 PM	149	165	143	98	130	154	132	111	142	170	173	166	0	
1:27:23 PM	153	170	144	93	132	157	111	73	91	126	140	143	0	
1:27:23 PM	138	143	132	114	130	137	92	87	95	109	119	124	0	
1:27:23 PM	125	122	125	131	127	123	106	120	118	117	120	122	0	
1:27:23 PM	123	120	125	134	126	122	125	129	124	121	122	123	0	
1:27:23 PM	124	122	125	132	127	123	129	129	124	122	122	123	0	
1:27:23 PM	124	122	125	132	127	124	129	129	124	122	122	123	0	
1:27:23 PM	124	122	125	132	127	124	129	129	124	122	122	123	0	
1:27:23 PM	124	122	125	131	127	124	129	129	124	122	123	123	0	
1:27:23 PM	124	122	125	131	127	124	129	129	124	122	123	123	0	
1:27:23 PM	124	123	126	131	127	124	129	129	124	123	123	124	0	
1:27:23 PM	125	123	126	131	127	124	129	129	125	123	123	124	0	
1:27:23 PM	125	123	126	131	127	124	129	129	125	123	123	124	0	
1:27:23 PM	125	123	126	131	127	124	129	128	125	123	123	124	0	
1:27:23 PM	125	123	126	131	127	125	129	128	125	123	123	124	0	
1:27:23 PM	125	123	126	131	127	125	128	128	125	123	124	124	0	
1:27:23 PM	125	124	126	130	127	125	128	128	126	124	124	124	0	
1:27:23 PM	125	124	126	130	127	125	128	129	129	126	125	126	0	
1:27:23 PM	127	126	127	128	127	126	129	131	134	131	127	128	0	
1:27:23 PM	129	129	127	126	128	128	130	134	140	135	130	130	0	
1:27:23 PM	132	133	128	123	129	130	131	137	145	140	133	132	0	
1:27:23 PM	134	136	129	120	130	132	131	140	149	144	136	134	0	
1:27:23 PM	136	138	130	118	130	134	132	142	152	147	138	135	0	
1:27:23 PM	137	140	131	116	130	136	132	143	154	148	139	136	0	
1:27:23 PM	138	141	131	115	131	136	132	142	154	148	139	136	0	
1:27:23 PM	138	141	131	115	131	136	133	142	152	147	138	135	0	
1:27:23 PM	137	140	130	116	131	135	133	141	148	144	138	134	0	
1:27:23 PM	136	139	130	117	130	135	132	139	143	140	136	133	0	
1:27:23 PM	134	136	130	120	129	133	131	136	137	134	133	131	0	
1:27:23 PM	131	133	129	123	128	131	130	132	131	128	129	128	0	
1:27:23 PM	128	128	128	127	127	128	128	128	124	123	125	125	0	
1:27:24 PM	125	124	127	130	126	125	127	125	119	119	122	123	0	
1:27:24 PM	123	121	126	133	126	123	127	124	118	119	121	123	0	
1:27:24 PM	123	120	125	133	126	123	127	124	118	119	121	123	0	
1:27:24 PM	123	121	125	133	126	123	127	124	119	119	122	123	0	
1:27:24 PM	123	121	125	133	126	123	127	124	119	119	122	123	0	
1:27:24 PM	123	121	125	133	126	123	127	124	119	120	122	123	0	
1:27:24 PM	123	121	125	132	126	123	127	124	120	120	122	123	0	
1:27:24 PM	123	122	126	132	126	124	127	124	120	120	122	123	0	
1:27:24 PM	123	122	126	132	126	124	127	125	120	120	123	124	0	
1:27:24 PM	124	122	126	132	126	124	127	125	120	121	123	124	0	
1:27:24 PM	124	122	126	132	126	124	127	125	121	121	123	124	0	
1:27:24 PM	124	122	126	132	126	124	127	125	121	121	123	124	0	
1:27:24 PM	124	122	126	131	126	124	127	125	121	121	123	124	0	
1:27:24 PM	124	123	126	131	126	124	127	125	121	122	123	124	0	
1:27:24 PM	124	123	126	131	126	124	127	125	122	122	123	124	0	
1:27:24 PM	124	123	126	131	127	124	127	125	122	122	124	124	0	
1:27:24 PM	124	123	126	131	127	125	127	125	122	122	124	125	0	
1:27:24 PM	125	123	126	131	127	125	127	125	122	122	124	125	0	
1:27:24 PM	125	123	126	131	127	125	127	125	122	123	124	125	0	
1:27:24 PM	125	123	126	131	127	125	127	125	122	123	124	125	0	
1:27:24 PM	125	124	126	130	127	125	127	125	123	123	124	125	0	
1:27:24 PM	125	124	126	130	127	125	127	126	123	123	124	125	0	
1:27:24 PM	125	124	126	130	127	125	127	126	123	123	124	125	0	
1:27:24 PM	125	124	126	130	127	125	127	126	123	123	124	125	0	
1:27:24 PM	125	124	126	130	127	125	127	126	124	124	125	125	0	
1:27:24 PM	125	125	127	130	127	126	127	128	126	127	128	127	0	
1:27:24 PM	127	127	127	127	127	127	128	130	130	130	131	130	0	
1:27:24 PM	130	131	129	124	128	130	128	131	131	131	132	131	0	
1:27:24 PM	132	133	129	122	129	131	129	131	131	131	132	131	0	
1:27:24 PM	132	133	129	122	129	131	130	131	130	130	131	130	0	
1:27:24 PM	131	132	129	123	128	130	129	129	128	128	129	128	0	
1:27:24 PM	128	129	128	126	127	128	128	126	125	125	126	126	0	
1:27:24 PM	126	125	127	129	127	126	127	125	123	123	124	125	0	
1:27:24 PM	125	124	126	130	127	125	127	125	123	123	124	125	0	
1:27:24 PM	125	124	126	130	127	125	127	125	123	123	124	125	0	
1:27:24 PM	125	124	126	130	127	125	127	125	123	124	124	125	0	
1:27:24 PM	125	124	126	130	127	125	127	126	124	124	124	125	0	
1:27:24 PM	125	124	126	130	127	125	127	126	124	124	125	125	0	
1:27:24 PM	125	124	126	130	127	125	127	126	124	124	125	125	0	
1:27:24 PM	125	124	126	130	127	125	127	126	124	124	125	125	0	
1:27:24 PM	125	124	126	130	127	125	127	126	123	123	124	124	0	
1:27:24 PM	125	124	126	130	127	125	127	128	126	124	122	122	0	
1:27:24 PM	123	123	127	132	125	125	130	139	150	146	136	133	0	
1:27:24 PM	130	135	132	122	126	133	135	145	175	180	169	159	0	
1:27:24 PM	148	163	143	99	130	153	133	115	146	173	174	167	0	
1:27:24 PM	154	171	144	92	132	157	113	75	94	129	142	145	0	
1:27:24 PM	139	145	133	112	131	139	93	85	93	109	120	125	0	
1:27:24 PM	125	123	125	131	127	124	104	118	117	116	120	122	0	
1:27:24 PM	122	119	124	134	126	122	124	128	123	121	122	123	0	
1:27:24 PM	124	121	125	132	127	123	129	129	124	122	122	123	0	
1:27:24 PM	124	122	125	132	127	124	129	129	124	122	122	123	0	
1:27:24 PM	124	122	125	132	127	124	129	129	124	122	122	123	0	
1:27:24 PM	124	122	125	131	127	124	129	129	124	122	123	123	0	
1:27:24 PM	124	122	126	131	127	124	129	129	124	122	123	124	0	
1:27:24 PM	124	123	126	131	127	124	129	129	124	123	123	124	0	
1:27:24 PM	125	123	126	131	127	124	129	128	125	123	123	124	0	
1:27:24 PM	125	123	126	131	127	124	129	128	125	123	123	124	0	
1:27:24 PM	125	123	126	131	127	124	129	128	125	123	123	124	0	
1:27:24 PM	125	123	126	131	127	124	129	128	125	123	123	124	0	
1:27:24 PM	125	123	126	131	127	125	128	128	125	123	124	124	0	
1:27:24 PM	125	123	126	130	127	125	128	128	126	124	124	124	0	
1:27:24 PM	125	124	126	130	127	125	128	129	129	126	125	125	0	
1:27:24 PM	126	126	126	129	127	126	129	131	134	130	127	127	0	
1:27:24 PM	129	129	127	126	128	128	130	134	140	135	130	130	0	
1:27:24 PM	131	132	128	123	129	130	131	137	145	140	133	132	0	
1:27:24 PM	134	135	129	120	130	132	131	140	149	144	136	134	0	
1:27:24 PM	135	138	130	118	130	134	132	142	152	146	138	135	0	
1:27:24 PM	137	140	131	116	130	136	132	142	153	148	139	136	0	
1:27:24 PM	138	141	131	115	131	136	132	142	154	148	139	136	0	
1:27:24 PM	138	141	131	115	131	136	133	142	152	147	138	135	0	
1:27:24 PM	137	140	130	116	131	135	133	141	149	144	138	134	0	
1:27:24 PM	136	139	130	117	130	135	132	139	143	140	136	133	0	
1:27:24 PM	134	137	130	119	129	133	131	136	138	135	133	131	0	
1:27:24 PM	131	133	129	123	128	131	130	132	131	129	130	128	0	
1:27:24 PM	128	129	128	126	127	128	129	128	124	123	125	125	0	
1:27:24 PM	125	124	127	130	126	126	128	125	119	119	122	123	0	
1:27:24 PM	123	121	126	132	126	124	127	124	118	119	121	123	0	
1:27:24 PM	123	120	125	133	126	123	127	124	118	119	121	123	0	
1:27:24 PM	123	121	125	133	126	123	127	124	119	119	122	123	0	
1:27:24 PM	123	121	125	133	126	123	127	124	119	119	122	123	0	
1:27:24 PM	123	121	125	133	126	123	127	124	119	120	122	123	0	
1:27:24 PM	123	121	125	132	126	123	127	124	120	120	122	123	0	
1:27:24 PM	123	121	125	132	126	123	127	124	120	120	122	123	0	
1:27:24 PM	123	122	126	132	126	124	127	125	120	120	123	124	0	
1:27:24 PM	124	122	126	132	126	124	127	125	120	121	123	124	0	
1:27:24 PM	124	122	126	132	126	124	127	125	121	121	123	124	0	
1:27:24 PM	124	122	126	132	126	124	127	125	121	121	123	124	0	
1:27:24 PM	124	122	126	131	126	124	127	125	121	121	123	124	0	
1:27:24 PM	124	123	126	131	126	124	127	125	121	122	123	124	0	
1:27:24 PM	124	123	126	131	127	124	127	125	121	122	123	124	0	
1:27:24 PM	124	123	126	131	127	124	127	125	122	122	124	124	0	
1:27:24 PM	124	123	126	131	127	125	127	125	122	122	124	124	0	
1:27:24 PM	125	123	126	131	127	125	127	125	122	122	124	125	0	
1:27:24 PM	125	123	126	131	127	125	127	125	122	122	124	125	0	
1:27:24 PM	125	124	126	131	127	125	127	125	122	123	124	125	0	
1:27:24 PM	125	124	126	130	127	125	127	126	123	123	124	125	0	
1:27:24 PM	125	124	126	130	127	125	127	126	123	123	124	125	0	
1:27:24 PM	125	124	126	130	127	125	127	126	123	123	124	125	0	
1:27:24 PM	125	124	126	130	127	125	127	126	123	123	125	125	0	
1:27:25 PM	125	124	126	130	127	125	127	126	124	124	125	125	0	
1:27:25 PM	125	125	127	130	127	126	127	127	126	127	128	127	0	
1:27:25 PM	127	127	127	128	127	127	128	130	129	130	131	129	0	
1:27:25 PM	130	131	129	124	128	130	128	131	131	131	132	131	0	
1:27:25 PM	132	133	129	122	129	131	129	131	131	131	132	131	0	
1:27:25 PM	132	134	129	122	129	131	130	131	130	130	131	130	0	
1:27:25 PM	131	132	129	123	128	131	129	129	129	129	130	129	0	
1:27:25 PM	128	129	128	126	127	129	128	126	125	125	126	126	0	
1:27:25 PM	126	125	127	129	127	126	127	125	123	123	124	125	0	
1:27:25 PM	125	124	126	130	127	125	127	125	123	123	124	125	0	
1:27:25 PM	125	124	126	130	127	125	127	125	123	123	124	125	0	
1:27:25 PM	125	124	126	130	127	125	127	126	123	124	124	125	0	
1:27:25 PM	125	124	126	130	127	125	127	126	124	124	124	125	0	
1:27:25 PM	125	124	126	130	127	125	127	126	124	124	125	125	0	
1:27:25 PM	125	124	126	130	127	125	127	126	124	124	125	125	0	
1:27:25 PM	125	124	126	130	127	125	127	126	124	124	125	125	0	
1:27:25 PM	125	124	126	130	127	125	127	126	123	123	124	125	0	
1:27:25 PM	125	124	126	130	127	125	127	127	125	123	122	122	0	
1:27:25 PM	123	123	127	132	126	125	129	138	148	143	134	132	0	
1:27:25 PM	129	133	132	124	126	132	135	145	175	179	167	158	0	
1:27:25 PM	146	161	142	101	129	152	134	118	151	175	175	168	0	
1:27:25 PM	154	171	145	92	132	158	115	76	96	131	144	147	0	
1:27:25 PM	141	147	134	111	131	141	93	83	92	109	121	126	0	
1:27:25 PM	126	124	125	130	128	125	102	116	116	115	119	122	0	
1:27:25 PM	122	119	124	134	126	122	123	128	123	121	122	123	0	
1:27:25 PM	124	121	125	132	127	123	129	129	124	122	122	123	0	
1:27:25 PM	124	122	125	132	127	124	129	129	124	122	122	123	0	
1:27:25 PM	124	122	125	132	127	124	129	129	124	122	122	123	0	
1:27:25 PM	124	122	125	131	127	124	129	129	124	122	123	123	0	
1:27:25 PM	124	122	125	131	127	124	129	129	124	122	123	123	0	
1:27:25 PM	124	123	126	131	127	124	129	129	125	122	123	124	0	
1:27:25 PM	124	123	126	131	127	124	129	129	125	123	123	124	0	
1:27:25 PM	125	123	126	131	127	124	129	128	125	123	123	124	0	
1:27:25 PM	125	123	126	131	127	124	129	128	125	123	123	124	0	
1:27:25 PM	125	123	126	131	127	124	129	128	125	123	123	124	0	
1:27:25 PM	125	123	126	131	127	125	129	128	125	123	124	124	0	
1:27:25 PM	125	123	126	130	127	125	128	128	126	124	124	124	0	
1:27:25 PM	125	124	126	130	127	125	128	129	129	126	125	125	0	
1:27:25 PM	126	125	127	129	127	126	129	131	134	130	127	127	0	
1:27:25 PM	128	129	127	126	128	128	130	134	139	135	129	130	0	
1:27:25 PM	131	132	128	123	129	130	130	137	144	140	132	132	0	
1:27:25 PM	133	135	129	120	129	132	131	140	149	144	135	134	0	
1:27:25 PM	135	138	130	118	130	134	132	142	152	146	138	135	0	
1:27:25 PM	136	140	131	116	130	136	132	142	153	148	139	136	0	
1:27:25 PM	138	141	131	115	131	136	132	142	154	148	139	136	0	
1:27:25 PM	138	141	131	115	131	136	133	142	152	147	138	135	0	
1:27:25 PM	137	141	130	116	131	136	133	141	149	145	138	134	0	
1:27:25 PM	136	139	130	117	130	135	132	139	144	140	136	133	0	
1:27:25 PM	134	137	130	119	130	133	131	137	138	135	134	131	0	
1:27:25 PM	132	133	129	122	129	131	130	133	132	129	130	128	0	
1:27:25 PM	128	129	128	126	128	128	129	128	125	123	126	126	0	
1:27:25 PM	125	125	127	130	127	126	128	125	120	119	123	123	0	
1:27:25 PM	123	122	126	132	126	124	127	124	118	119	121	123	0	
1:27:25 PM	123	120	125	133	126	123	127	124	118	119	121	123	0	
1:27:25 PM	123	121	125	133	126	123	127	124	119	119	122	123	0	
1:27:25 PM	123	121	125	133	126	123	127	124	119	119	122	123	0	
1:27:25 PM	123	121	125	133	126	123	127	124	119	120	122	123	0	
1:27:25 PM	123	121	125	132	126	123	127	124	120	120	122	123	0	
1:27:25 PM	123	121	126	132	126	123	127	124	120	120	122	123	0	
1:27:25 PM	123	122	126	132	126	124	127	125	120	121	123	124	0	
1:27:25 PM	124	122	126	132	126	124	127	125	120	121	123	124	0	
1:27:25 PM	124	122	126	132	126	124	127	125	121	121	123	124	0	
1:27:25 PM	124	122	126	132	126	124	127	125	121	121	123	124	0	
1:27:25 PM	124	122	126	131	127	124	127	125	121	121	123	124	0	
1:27:25 PM	124	123	126	131	127	124	127	125	121	122	123	124	0	
1:27:25 PM	124	123	126	131	127	124	127	125	122	122	123	124	0	
1:27:25 PM	124	123	126	131	127	124	127	125	122	122	124	124	0	
1:27:25 PM	124	123	126	131	127	125	127	125	122	122	124	125	0	
1:27:25 PM	125	123	126	131	127	125	127	125	122	122	124	125	0	
1:27:25 PM	125	123	126	131	127	125	127	125	122	122	124	125	0	
1:27:25 PM	125	124	126	131	127	125	127	125	122	123	124	125	0	
1:27:25 PM	125	124	126	130	127	125	127	126	123	123	124	125	0	
1:27:25 PM	125	124	126	130	127	125	127	126	123	123	124	125	0	
1:27:25 PM	125	124	126	130	127	125	127	126	123	123	124	125	0	
1:27:25 PM	125	124	126	130	127	125	127	126	123	123	124	125	0	
1:27:25 PM	125	124	126	130	127	125	127	126	123	124	125	125	0	
1:27:25 PM	125	125	126	130	127	125	127	127	126	126	127	127	0	
1:27:25 PM	127	127	127	128	127	127	127	130	129	129	130	129	0	
1:27:25 PM	130	131	128	125	128	130	128	131	131	131	132	131	0	
1:27:25 PM	132	133	129	122	129	131	129	132	131	131	132	131	0	
1:27:25 PM	132	133	129	122	129	131	130	131	130	130	131	131	0	
1:27:25 PM	131	132	129	123	128	131	129	129	129	129	130	129	0	
1:27:25 PM	128	129	128	126	127	129	128	127	126	126	126	126	0	
1:27:25 PM	126	125	127	129	127	126	127	125	123	123	124	125	0	
1:27:25 PM	125	124	126	130	127	125	127	125	123	123	124	125	0	
1:27:25 PM	125	124	126	130	127	125	127	125	123	123	124	125	0	
1:27:25 PM	125	124	126	130	127	125	127	125	123	123	124	125	0	
1:27:25 PM	125	124	126	130	127	125	127	126	124	124	124	125	0	
1:27:25 PM	125	124	126	130	127	125	127	126	124	124	125	125	0	
1:27:25 PM	125	124	126	130	127	125	127	126	124	124	125	125	0	
1:27:25 PM	125	124	126	130	127	125	127	126	124	124	125	125	0	
1:27:25 PM	125	125	126	130	127	125	127	126	123	124	124	125	0	
1:27:25 PM	125	124	126	130	127	125	127	127	125	123	122	122	0	
1:27:25 PM	123	122	127	132	126	125	129	137	146	141	133	130	0	
1:27:25 PM	128	131	131	125	126	131	135	146	175	177	164	156	0	
1:27:25 PM	145	159	141	103	129	150	135	122	154	177	176	168	0	
1:27:25 PM	154	172	145	92	132	158	117	78	99	134	147	149	0	
1:27:25 PM	142	150	135	109	131	142	93	80	90	109	122	127	0	
1:27:25 PM	126	125	126	129	128	125	101	115	115	115	119	121	0	
1:27:25 PM	122	119	124	134	126	122	123	128	123	121	122	123	0	
1:27:26 PM	124	121	125	132	127	123	129	129	124	122	122	123	0	
1:27:26 PM	124	122	125	132	127	124	129	129	124	122	122	123	0	
1:27:26 PM	124	122	125	132	127	124	129	129	124	122	122	123	0	
1:27:26 PM	124	122	125	131	127	124	129	129	124	122	123	123	0	
1:27:26 PM	124	122	126	131	127	124	129	129	124	122	123	123	0	
1:27:26 PM	124	123	126	131	127	124	129	129	125	122	123	124	0	
1:27:26 PM	124	123	126	131	127	124	129	129	125	123	123	124	0	
1:27:26 PM	125	123	126	131	127	124	129	129	125	123	123	124	0	
1:27:26 PM	125	123	126	131	127	124	129	129	125	123	123	124	0	
1:27:26 PM	125	123	126	131	127	124	129	128	125	123	124	124	0	
1:27:26 PM	125	123	126	131	127	125	129	128	125	123	124	124	0	
1:27:26 PM	125	123	126	130	127	125	129	128	125	124	124	124	0	
1:27:26 PM	125	124	126	130	127	125	128	129	128	126	124	125	0	
1:27:26 PM	126	125	126	129	127	126	129	131	133	130	126	127	0	
1:27:26 PM	128	128	127	126	128	128	129	133	139	134	129	129	0	
1:27:26 PM	131	132	128	123	129	130	130	136	144	139	132	132	0	
1:27:26 PM	133	135	129	121	129	132	131	139	149	143	135	133	0	
1:27:26 PM	135	138	130	118	130	134	132	142	151	146	138	135	0	
1:27:26 PM	136	140	131	116	130	135	132	143	153	148	139	136	0	
1:27:26 PM	137	141	131	115	131	136	132	142	154	148	139	136	0	
1:27:26 PM	138	141	131	115	131	136	133	142	153	147	138	135	0	
1:27:26 PM	138	141	130	116	131	136	133	141	149	145	138	134	0	
1:27:26 PM	136	139	130	117	130	135	132	139	144	141	136	133	0	
1:27:26 PM	134	137	130	119	130	134	131	137	139	135	134	131	0	
1:27:26 PM	132	134	129	122	129	131	130	133	132	130	130	129	0	
1:27:26 PM	128	129	128	126	127	129	129	129	125	124	126	126	0	
1:27:26 PM	125	125	127	130	127	126	128	125	120	120	123	124	0	
1:27:26 PM	123	122	126	132	126	124	127	124	118	119	121	123	0	
1:27:26 PM	123	121	125	133	126	123	127	124	118	119	121	123	0	
1:27:26 PM	123	121	125	133	126	123	127	124	119	119	122	123	0	
1:27:26 PM	123	121	125	133	126	123	127	124	119	119	122	123	0	
1:27:26 PM	123	121	125	133	126	123	127	124	119	120	122	123	0	
1:27:26 PM	123	121	125	133	126	123	127	124	120	120	122	123	0	
1:27:26 PM	123	121	126	132	126	123	127	124	120	120	122	123	0	
1:27:26 PM	123	122	126	132	126	124	127	125	120	120	123	124	0	
1:27:26 PM	123	122	126	132	126	124	127	125	120	121	123	124	0	
1:27:26 PM	124	122	126	132	126	124	127	125	121	121	123	124	0	
1:27:26 PM	124	122	126	132	126	124	127	125	121	121	123	124	0	
1:27:26 PM	124	122	126	131	126	124	127	125	121	121	123	124	0	
1:27:26 PM	124	123	126	131	126	124	127	125	121	122	123	124	0	
1:27:26 PM	124	123	126	131	126	124	127	125	121	122	123	124	0	
1:27:26 PM	124	123	126	131	127	124	127	125	122	122	124	124	0	
1:27:26 PM	124	123	126	131	127	125	127	125	122	122	124	124	0	
1:27:26 PM	125	123	126	131	127	125	127	125	122	122	124	125	0	
1:27:26 PM	125	123	126	131	127	125	127	125	122	122	124	125	0	
1:27:26 PM	125	124	126	131	127	125	127	125	122	123	124	125	0	
1:27:26 PM	125	124	126	130	127	125	127	126	123	123	124	125	0	
1:27:26 PM	125	124	126	130	127	125	127	126	123	123	124	125	0	
1:27:26 PM	125	124	126	130	127	125	127	126	123	123	124	125	0	
1:27:26 PM	125	124	126	130	127	125	127	126	123	123	124	125	0	
1:27:26 PM	125	124	126	130	127	125	127	126	123	124	125	125	0	
1:27:26 PM	125	124	126	130	127	125	127	127	126	126	127	126	0	
1:27:26 PM	127	127	127	128	127	127	127	130	129	129	130	129	0	
1:27:26 PM	129	131	128	125	128	129	128	131	131	131	132	131	0	
1:27:26 PM	132	133	129	122	129	131	129	131	131	131	132	131	0	
1:27:26 PM	132	134	129	122	129	131	130	131	130	130	131	131	0	
1:27:26 PM	131	133	129	123	128	131	129	129	129	129	130	129	0	
1:27:26 PM	129	129	128	126	128	129	128	127	126	126	127	126	0	
1:27:26 PM	126	126	127	129	127	126	127	125	123	124	124	125	0	
1:27:26 PM	125	124	126	130	127	125	127	125	123	123	124	125	0	
1:27:26 PM	125	124	126	130	127	125	127	125	123	123	124	125	0	
1:27:26 PM	125	124	126	130	127	125	127	125	123	124	124	125	0	
1:27:26 PM	125	124	126	130	127	125	127	126	124	124	124	125	0	
1:27:26 PM	125	124	126	130	127	125	127	126	124	124	125	125	0	
1:27:26 PM	125	124	126	130	127	125	127	126	124	124	125	125	0	
1:27:26 PM	125	124	126	130	127	125	127	126	124	124	125	125	0	
1:27:26 PM	125	124	126	130	127	125	127	126	123	124	124	125	0	
1:27:26 PM	125	124	126	130	127	125	127	126	124	123	122	122	0	
1:27:26 PM	123	122	127	132	126	125	129	136	143	138	131	129	0	
1:27:26 PM	127	130	130	126	126	130	134	146	174	175	162	154	0	
1:27:26 PM	144	157	141	104	129	149	135	125	158	179	176	169	0	
1:27:26 PM	154	172	145	92	132	159	119	80	102	138	150	151	0	
1:27:26 PM	144	152	136	107	131	144	94	78	89	110	123	128	0	
1:27:26 PM	127	126	126	128	128	126	99	113	113	114	119	121	0	
1:27:26 PM	122	119	124	134	126	122	121	128	123	121	121	122	0	
1:27:26 PM	123	121	125	132	127	123	129	129	124	122	122	123	0	
1:27:26 PM	124	122	125	132	127	124	129	129	124	122	122	123	0	
1:27:26 PM	124	122	125	132	127	124	129	129	124	122	122	123	0	
1:27:26 PM	124	122	125	132	127	124	129	129	124	122	123	123	0	
1:27:26 PM	124	122	125	131	127	124	129	129	124	122	123	123	0	
1:27:26 PM	124	123	126	131	127	124	129	129	125	123	123	124	0	
1:27:26 PM	124	123	126	131	127	124	129	129	125	123	123	124	0	
1:27:26 PM	125	123	126	131	127	124	129	129	125	123	123	124	0	
1:27:26 PM	125	123	126	131	127	124	129	128	125	123	123	124	0	
1:27:26 PM	125	123	126	131	127	124	129	128	125	123	123	124	0	
1:27:26 PM	125	123	126	131	127	125	129	128	125	123	124	124	0	
1:27:26 PM	125	123	126	130	127	125	128	128	125	124	124	124	0	
1:27:26 PM	125	124	126	130	127	125	128	129	128	125	124	125	0	
1:27:26 PM	126	125	126	129	127	126	129	131	133	129	126	127	0	
1:27:26 PM	128	128	127	127	128	128	129	133	138	134	129	129	0	
1:27:26 PM	131	132	128	123	129	130	130	136	144	139	132	131	0	
1:27:26 PM	133	135	129	121	129	132	131	139	148	143	135	133	0	
1:27:26 PM	135	138	130	118	130	134	132	141	151	146	138	135	0	
1:27:26 PM	136	140	131	117	130	135	132	143	153	148	139	136	0	
1:27:26 PM	137	141	131	115	131	136	132	142	154	148	139	136	0	
1:27:26 PM	138	141	131	115	131	136	133	142	153	148	139	135	0	
1:27:26 PM	138	141	131	116	131	136	133	141	150	145	138	135	0	
1:27:26 PM	137	139	130	117	131	135	132	140	145	141	137	134	0	
1:27:26 PM	135	137	130	119	130	134	131	137	139	136	134	131	0	
1:27:26 PM	132	134	129	122	129	131	130	133	133	130	130	129	0	
1:27:27 PM	129	130	128	126	128	129	129	129	126	124	126	126	0	
1:27:27 PM	126	125	127	129	127	126	128	126	120	120	123	124	0	
1:27:27 PM	123	122	126	132	126	124	127	124	118	119	121	123	0	
1:27:27 PM	123	121	125	133	126	123	127	124	118	119	121	123	0	
1:27:27 PM	123	121	125	133	126	123	127	124	119	119	122	123	0	
1:27:27 PM	123	121	125	133	126	123	127	124	119	119	122	123	0	
1:27:27 PM	123	121	125	133	126	123	127	124	119	120	122	123	0	
1:27:27 PM	123	121	125	133	126	123	127	124	120	120	122	123	0	
1:27:27 PM	123	121	126	132	126	124	127	124	120	120	122	123	0	
1:27:27 PM	123	122	126	132	126	124	127	125	120	120	122	124	0	
1:27:27 PM	124	122	126	132	126	124	127	125	120	121	123	124	0	
1:27:27 PM	124	122	126	132	126	124	127	125	121	121	123	124	0	
1:27:27 PM	124	122	126	132	126	124	127	125	121	121	123	124	0	
1:27:27 PM	124	122	126	132	126	124	127	125	121	121	123	124	0	
1:27:27 PM	124	123	126	131	126	124	127	125	121	122	123	124	0	
1:27:27 PM	124	123	126	131	126	124	127	125	121	122	123	124	0	
1:27:27 PM	124	123	126	131	126	124	127	125	122	122	123	124	0	
1:27:27 PM	124	123	126	131	127	125	127	125	122	122	124	124	0	
1:27:27 PM	125	123	126	131	127	125	127	125	122	122	124	125	0	
1:27:27 PM	125	123	126	131	127	125	127	125	122	122	124	125	0	
1:27:27 PM	125	123	126	131	127	125	127	125	122	123	124	125	0	
1:27:27 PM	125	124	126	131	127	125	127	126	123	123	124	125	0	
1:27:27 PM	125	124	126	130	127	125	127	126	123	123	124	125	0	
1:27:27 PM	125	124	126	130	127	125	127	126	123	123	124	125	0	
1:27:27 PM	125	124	126	130	127	125	127	126	123	123	124	125	0	
1:27:27 PM	125	124	126	130	127	125	127	126	123	124	125	125	0	
1:27:27 PM	125	124	126	130	127	125	127	127	125	126	127	126	0	
1:27:27 PM	127	126	127	128	127	127	127	129	129	129	130	129	0	
1:27:27 PM	129	130	128	125	128	129	128	131	131	131	132	131	0	
1:27:27 PM	131	133	129	122	129	131	129	132	131	131	132	131	0	
1:27:27 PM	132	134	129	122	129	131	130	131	130	131	132	131	0	
1:27:27 PM	131	133	129	123	128	131	129	129	129	129	130	129	0	
1:27:27 PM	129	130	128	125	127	129	128	127	126	126	127	127	0	
1:27:27 PM	126	126	127	129	127	127	127	125	124	124	125	125	0	
1:27:27 PM	125	124	126	130	127	125	127	125	123	123	124	125	0	
1:27:27 PM	125	124	126	130	127	125	127	125	123	123	124	125	0	
1:27:27 PM	125	124	126	130	127	125	127	125	123	124	124	125	0	
1:27:27 PM	125	124	126	130	127	125	127	126	124	124	124	125	0	
1:27:27 PM	125	124	126	130	127	125	127	126	124	124	125	125	0	
1:27:27 PM	125	124	126	130	127	125	127	126	124	124	125	125	0	
1:27:27 PM	125	124	126	130	127	125	127	126	124	124	125	125	0	
1:27:27 PM	125	124	126	130	127	125	127	126	124	124	124	125	0	
1:27:27 PM	125	124	126	130	127	125	127	126	123	122	122	122	0	
1:27:27 PM	123	122	127	132	126	125	129	135	141	136	130	128	0	
1:27:27 PM	126	129	130	127	126	129	134	146	173	173	160	152	0	
1:27:27 PM	142	155	140	106	129	147	136	128	161	180	176	169	0	
1:27:27 PM	154	172	145	91	132	159	120	82	105	141	152	153	0	
1:27:27 PM	145	154	137	105	131	146	95	76	88	111	124	129	0	
1:27:27 PM	128	127	126	127	128	127	98	110	112	113	119	121	0	
1:27:27 PM	122	119	124	134	126	122	120	127	123	121	121	122	0	
1:27:27 PM	123	121	125	133	126	123	129	129	124	122	122	123	0	
1:27:27 PM	124	122	125	132	127	124	129	129	124	122	122	123	0	
1:27:27 PM	124	122	125	132	127	124	129	129	124	122	122	123	0	
1:27:27 PM	124	122	125	131	127	124	129	129	124	122	122	123	0	
1:27:27 PM	124	122	125	131	127	124	129	129	124	122	123	123	0	
1:27:27 PM	124	123	126	131	127	124	129	129	125	122	123	124	0	
1:27:27 PM	124	123	126	131	127	124	129	129	125	123	123	124	0	
1:27:27 PM	125	123	126	131	127	124	129	129	125	123	123	124	0	
1:27:27 PM	125	123	126	131	127	124	129	128	125	123	123	124	0	
1:27:27 PM	125	123	126	131	127	124	129	128	125	123	123	124	0	
1:27:27 PM	125	123	126	131	127	125	129	128	125	123	124	124	0	
1:27:27 PM	125	124	126	130	127	125	128	128	125	123	124	124	0	
1:27:27 PM	125	124	126	130	127	125	128	129	128	125	124	125	0	
1:27:27 PM	126	125	126	129	127	126	129	130	133	129	126	127	0	
1:27:27 PM	128	128	127	127	128	128	129	133	138	134	129	129	0	
1:27:27 PM	131	131	128	124	129	130	130	136	143	139	132	131	0	
1:27:27 PM	133	135	129	121	129	132	131	139	148	143	135	133	0	
1:27:27 PM	135	137	130	118	130	134	132	141	151	146	137	135	0	
1:27:27 PM	136	140	131	117	130	135	132	143	153	148	139	135	0	
1:27:27 PM	137	141	131	116	131	136	132	142	154	148	139	136	0	
1:27:27 PM	138	142	131	115	131	136	133	142	153	148	139	135	0	
1:27:27 PM	138	141	131	115	131	136	133	141	150	145	138	135	0	
1:27:27 PM	137	140	130	117	131	135	132	140	145	142	137	134	0	
1:27:27 PM	135	138	130	118	130	134	131	137	140	136	134	132	0	
1:27:27 PM	132	134	129	122	129	132	130	134	133	131	131	129	0	
1:27:27 PM	129	130	128	125	128	129	129	129	126	125	127	126	0	
1:27:27 PM	126	126	127	129	127	126	128	126	120	120	123	124	0	
1:27:27 PM	124	122	126	132	126	124	127	124	118	118	121	123	0	
1:27:27 PM	123	121	125	133	126	123	127	124	118	119	121	123	0	
1:27:27 PM	123	121	125	133	126	123	127	124	119	119	121	123	0	
1:27:27 PM	123	121	125	133	126	123	127	124	119	119	122	123	0	
1:27:27 PM	123	121	125	133	126	123	127	124	119	120	122	123	0	
1:27:27 PM	123	121	125	132	126	123	127	124	119	120	122	123	0	
1:27:27 PM	123	122	125	132	126	124	127	124	120	120	122	123	0	
1:27:27 PM	123	122	126	132	126	124	127	124	120	120	122	123	0	
1:27:27 PM	124	122	126	132	126	124	127	125	120	121	123	124	0	
1:27:27 PM	124	122	126	132	126	124	127	125	121	121	123	124	0	
1:27:27 PM	124	122	126	132	126	124	127	125	121	121	123	124	0	
1:27:27 PM	124	122	126	131	126	124	127	125	121	121	123	124	0	
1:27:27 PM	124	123	126	131	126	124	127	125	121	122	123	124	0	
1:27:27 PM	124	123	126	131	126	124	127	125	121	122	123	124	0	
1:27:27 PM	124	123	126	131	126	125	127	125	122	122	124	124	0	
1:27:27 PM	124	123	126	131	126	125	127	125	122	122	124	125	0	
1:27:27 PM	124	123	126	131	127	125	127	125	122	122	124	125	0	
1:27:27 PM	125	123	126	131	127	125	127	125	122	122	124	125	0	
1:27:27 PM	125	123	126	131	127	125	127	125	122	123	124	125	0	
1:27:27 PM	125	124	126	130	127	125	127	126	123	123	124	125	0	
1:27:27 PM	125	124	126	130	127	125	127	126	123	123	124	125	0	
1:27:27 PM	125	124	126	130	127	125	127	126	123	123	124	125	0	
1:27:27 PM	125	124	126	130	127	125	127	126	123	123	124	125	0	
1:27:28 PM	125	124	126	130	127	125	127	126	123	124	125	125	0	
1:27:28 PM	125	124	126	130	127	125	127	127	125	126	127	126	0	
1:27:28 PM	126	126	127	128	127	127	127	129	129	129	130	129	0	
1:27:28 PM	129	130	128	125	128	129	128	131	130	131	132	131	0	
1:27:28 PM	131	133	129	123	129	131	129	132	131	131	132	131	0	
1:27:28 PM	132	134	129	122	129	131	130	131	130	131	132	131	0	
1:27:28 PM	131	133	129	123	129	131	129	130	129	129	130	129	0	
1:27:28 PM	129	130	128	125	128	129	128	127	126	126	127	127	0	
1:27:28 PM	126	126	127	128	127	127	127	125	124	124	125	125	0	
1:27:28 PM	125	124	126	130	127	125	127	125	123	123	124	125	0	
1:27:28 PM	125	124	126	130	127	125	127	125	123	124	124	125	0	
1:27:28 PM	125	124	126	130	127	125	127	126	123	124	124	125	0	
1:27:28 PM	125	124	126	130	127	125	127	126	124	124	125	125	0	
1:27:28 PM	125	124	126	130	127	125	127	126	124	124	125	125	0	
1:27:28 PM	125	124	126	130	127	125	127	126	124	124	125	125	0	
1:27:28 PM	125	124	126	130	127	125	127	126	124	124	125	125	0	
1:27:28 PM	125	124	126	130	127	125	127	126	124	124	124	125	0	
1:27:28 PM	125	124	126	130	127	125	127	126	123	122	122	123	0	
1:27:28 PM	123	123	127	132	126	125	128	134	139	135	128	127	0	
1:27:28 PM	126	128	130	128	125	129	133	146	171	170	157	150	0	
1:27:28 PM	141	152	139	108	128	146	136	131	163	181	176	168	0	
1:27:28 PM	154	172	145	92	132	159	122	85	109	145	155	155	0	
1:27:28 PM	146	157	138	103	132	147	96	75	88	112	126	130	0	
1:27:28 PM	129	129	127	126	128	128	97	108	110	112	118	121	0	
1:27:28 PM	122	119	124	134	127	122	119	127	123	121	121	122	0	
1:27:28 PM	123	121	125	133	127	123	129	129	124	122	122	123	0	
1:27:28 PM	124	122	125	132	127	124	129	129	124	122	122	123	0	
1:27:28 PM	124	122	125	132	127	124	129	129	124	122	122	123	0	
1:27:28 PM	124	122	125	131	127	124	129	129	124	122	122	123	0	
1:27:28 PM	124	122	125	131	127	124	129	129	124	122	123	123	0	
1:27:28 PM	124	123	126	131	127	124	129	129	124	122	123	124	0	
1:27:28 PM	124	123	126	131	127	124	129	129	125	123	123	124	0	
1:27:28 PM	125	123	126	131	127	124	129	129	125	123	123	124	0	
1:27:28 PM	125	123	126	131	127	124	129	128	125	123	123	124	0	
1:27:28 PM	125	123	126	131	127	124	129	128	125	123	123	124	0	
1:27:28 PM	125	123	126	131	127	125	129	128	125	123	124	124	0	
1:27:28 PM	125	123	126	130	127	125	129	128	125	123	124	124	0	
1:27:28 PM	125	124	126	130	127	125	129	129	127	125	124	125	0	
1:27:28 PM	126	125	126	129	127	126	129	130	132	129	126	127	0	
1:27:28 PM	128	128	127	127	128	127	129	133	137	133	128	129	0	
1:27:28 PM	130	131	128	124	129	129	130	136	143	138	131	131	0	
1:27:28 PM	133	134	129	121	129	132	131	139	148	143	135	133	0	
1:27:28 PM	135	137	130	119	130	133	132	141	151	145	137	135	0	
1:27:28 PM	136	140	131	117	130	135	132	142	153	147	139	135	0	
1:27:28 PM	137	141	131	116	131	136	132	142	154	148	139	136	0	
1:27:28 PM	138	141	131	115	131	136	133	142	153	148	139	136	0	
1:27:28 PM	138	141	131	115	131	136	133	142	150	146	138	135	0	
1:27:28 PM	137	140	130	116	131	135	132	140	145	142	137	134	0	
1:27:28 PM	135	138	130	118	130	134	131	137	140	137	135	132	0	
1:27:28 PM	132	134	129	121	129	132	130	134	134	131	131	129	0	
1:27:28 PM	129	130	128	125	128	129	129	130	127	125	127	126	0	
1:27:28 PM	126	126	127	129	127	126	128	126	121	120	123	124	0	
1:27:28 PM	124	122	126	132	126	124	127	124	118	119	121	123	0	
1:27:28 PM	123	121	125	133	126	123	127	124	118	119	121	123	0	
1:27:28 PM	123	121	125	133	126	123	127	124	119	119	121	123	0	
1:27:28 PM	123	121	125	133	126	123	127	124	119	119	122	123	0	
1:27:28 PM	123	121	125	133	126	123	127	124	119	120	122	123	0	
1:27:28 PM	123	121	125	132	126	123	127	124	119	120	122	123	0	
1:27:28 PM	123	121	125	132	126	123	127	124	120	120	122	123	0	
1:27:28 PM	123	122	125	132	126	124	127	124	120	120	122	124	0	
1:27:28 PM	124	122	126	132	126	124	127	125	120	121	123	124	0	
1:27:28 PM	124	122	126	132	126	124	127	125	121	121	123	124	0	
1:27:28 PM	124	122	126	132	126	124	127	125	121	121	123	124	0	
1:27:28 PM	124	122	126	131	126	124	127	125	121	121	123	124	0	
1:27:28 PM	124	123	126	131	126	124	127	125	121	122	123	124	0	
1:27:28 PM	124	123	126	131	126	124	127	125	121	122	123	124	0	
1:27:28 PM	124	123	126	131	127	124	127	125	122	122	123	124	0	
1:27:28 PM	124	123	126	131	127	125	127	125	122	122	124	124	0	
1:27:28 PM	125	123	126	131	127	125	127	125	122	122	124	125	0	
1:27:28 PM	125	123	126	131	127	125	127	125	122	122	124	125	0	
1:27:28 PM	125	124	126	131	127	125	127	125	122	123	124	125	0	
1:27:28 PM	125	124	126	130	127	125	127	125	123	123	124	125	0	
1:27:28 PM	125	124	126	130	127	125	127	126	123	123	124	125	0	
1:27:28 PM	125	124	126	130	127	125	127	126	123	123	124	125	0	
1:27:28 PM	125	124	126	130	127	125	127	126	123	123	124	125	0	
1:27:28 PM	125	124	126	130	127	125	127	126	123	124	125	125	0	
1:27:28 PM	125	124	126	130	127	125	127	127	125	126	127	126	0	
1:27:28 PM	126	126	127	129	127	126	127	129	128	129	130	129	0	
1:27:28 PM	129	130	128	126	128	129	128	131	130	130	132	130	0	
1:27:28 PM	131	133	129	123	128	131	129	131	131	131	132	131	0	
1:27:28 PM	132	134	129	122	129	131	129	131	130	131	132	131	0	
1:27:28 PM	131	133	129	123	129	131	129	130	129	129	130	129	0	
1:27:28 PM	129	130	128	125	128	129	128	127	127	126	127	127	0	
1:27:28 PM	127	126	127	128	127	127	127	126	124	124	125	125	0	
1:27:28 PM	125	124	126	130	127	125	127	125	123	123	124	125	0	
1:27:28 PM	125	124	126	130	127	125	127	125	123	123	124	125	0	
1:27:28 PM	125	124	126	130	127	125	127	125	123	124	124	125	0	
1:27:28 PM	125	124	126	130	127	125	127	125	123	124	124	125	0	
1:27:28 PM	125	124	126	130	127	125	127	126	124	124	125	125	0	
1:27:28 PM	125	124	126	130	127	125	127	126	124	124	125	125	0	
1:27:28 PM	125	124	126	130	127	125	127	126	124	124	125	125	0	
1:27:28 PM	125	124	126	130	127	125	127	126	124	124	124	125	0	
1:27:28 PM	125	124	126	130	127	125	127	126	123	122	122	123	0	
1:27:28 PM	123	123	127	132	126	125	128	133	137	133	127	126	0	
1:27:28 PM	125	127	129	129	125	128	133	146	169	168	155	148	0	
1:27:28 PM	139	150	138	110	128	144	137	133	166	182	176	168	0	
1:27:28 PM	154	172	145	92	132	158	124	88	113	148	158	157	0	
1:27:28 PM	147	159	139	101	132	149	98	74	87	113	127	131	0	
1:27:28 PM	130	130	128	125	129	129	96	106	108	111	118	121	0	
1:27:28 PM	123	119	124	134	127	122	117	127	122	120	121	122	0	
1:27:29 PM	123	121	125	133	126	123	128	129	124	121	122	123	0	
1:27:29 PM	124	122	125	132	127	123	129	129	124	122	122	123	0	
1:27:29 PM	124	122	125	132	127	124	129	129	124	122	122	123	0	
1:27:29 PM	124	122	125	132	127	124	129	129	124	122	123	123	0	
1:27:29 PM	124	122	125	131	127	124	129	129	124	122	123	123	0	
1:27:29 PM	124	123	126	131	127	124	129	129	124	123	123	124	0	
1:27:29 PM	124	123	126	131	127	124	129	129	125	123	123	124	0	
1:27:29 PM	124	123	126	131	127	124	129	129	125	123	123	124	0	
1:27:29 PM	125	123	126	131	127	124	129	129	125	123	123	124	0	
1:27:29 PM	125	123	126	131	127	124	129	128	125	123	123	124	0	
1:27:29 PM	125	123	126	131	127	125	128	128	125	123	124	124	0	
1:27:29 PM	125	123	126	130	127	125	128	128	125	123	124	124	0	
1:27:29 PM	125	124	126	130	127	125	128	129	127	125	124	125	0	
1:27:29 PM	126	125	126	130	127	125	129	130	132	128	126	126	0	
1:27:29 PM	128	127	127	127	128	127	129	133	137	133	128	129	0	
1:27:29 PM	130	131	128	124	128	129	130	135	143	138	131	131	0	
1:27:29 PM	133	134	129	121	129	131	131	139	147	142	135	133	0	
1:27:29 PM	135	137	130	119	130	133	132	141	151	145	137	135	0	
1:27:29 PM	136	139	131	117	130	135	132	142	153	147	139	135	0	
1:27:29 PM	137	141	131	116	130	136	132	142	154	148	139	136	0	
1:27:29 PM	138	141	131	115	131	136	133	142	153	148	139	136	0	
1:27:29 PM	138	141	131	115	131	136	133	142	150	146	138	135	0	
1:27:29 PM	137	140	130	116	131	135	132	140	146	142	137	134	0	
1:27:29 PM	135	138	130	118	130	134	132	138	141	137	135	132	0	
1:27:29 PM	132	135	129	121	129	132	130	134	134	132	131	129	0	
1:27:29 PM	129	130	128	125	128	129	129	130	127	126	127	127	0	
1:27:29 PM	126	126	127	128	127	127	128	126	121	120	124	124	0	
1:27:29 PM	124	122	126	132	126	124	127	124	118	119	121	123	0	
1:27:29 PM	123	121	125	133	126	123	127	124	118	119	121	123	0	
1:27:29 PM	123	121	125	133	126	123	127	124	119	119	121	123	0	
1:27:29 PM	123	121	125	133	126	123	127	124	119	119	122	123	0	
1:27:29 PM	123	121	125	133	126	123	127	124	119	120	122	123	0	
1:27:29 PM	123	121	125	132	126	123	127	124	119	120	122	123	0	
1:27:29 PM	123	121	125	132	126	123	127	124	120	120	122	123	0	
1:27:29 PM	123	122	126	132	126	124	127	125	120	120	122	123	0	
1:27:29 PM	124	122	126	132	126	124	127	125	120	121	123	124	0	
1:27:29 PM	124	122	126	132	126	124	127	125	121	121	123	124	0	
1:27:29 PM	124	122	126	132	126	124	127	125	121	121	123	124	0	
1:27:29 PM	124	122	126	131	126	124	127	125	121	121	123	124	0	
1:27:29 PM	124	123	126	131	126	124	127	125	121	122	123	124	0	
1:27:29 PM	124	123	126	131	126	124	127	125	121	122	123	124	0	
1:27:29 PM	124	123	126	131	126	124	127	125	122	122	123	124	0	
1:27:29 PM	124	123	126	131	127	124	127	125	122	122	124	125	0	
1:27:29 PM	124	123	126	131	127	125	127	125	122	122	124	125	0	
1:27:29 PM	125	123	126	131	127	125	127	125	122	122	124	125	0	
1:27:29 PM	125	123	126	131	127	125	127	125	122	123	124	125	0	
1:27:29 PM	125	124	126	130	127	125	127	126	123	123	124	125	0	
1:27:29 PM	125	124	126	130	127	125	127	126	123	123	124	125	0	
1:27:29 PM	125	124	126	130	127	125	127	126	123	123	124	125	0	
1:27:29 PM	125	124	126	130	127	125	127	126	123	123	124	125	0	
1:27:29 PM	125	124	126	130	127	125	127	126	123	123	125	125	0	
1:27:29 PM	125	124	126	130	127	125	127	127	125	125	126	126	0	
1:27:29 PM	126	126	127	129	127	126	127	129	128	128	129	128	0	
1:27:29 PM	129	129	128	126	128	129	128	131	130	130	131	130	0	
1:27:29 PM	131	133	129	123	129	131	129	132	131	131	132	131	0	
1:27:29 PM	132	134	129	122	129	131	129	131	130	131	132	131	0	
1:27:29 PM	132	133	129	122	129	131	129	130	130	130	131	130	0	
1:27:29 PM	129	131	128	125	128	130	128	127	127	127	128	127	0	
1:27:29 PM	127	127	127	128	127	127	127	126	124	124	125	125	0	
1:27:29 PM	125	124	126	130	127	125	127	125	123	123	124	125	0	
1:27:29 PM	125	124	126	130	127	125	127	125	123	123	124	125	0	
1:27:29 PM	125	124	126	130	127	125	127	125	123	124	124	125	0	
1:27:29 PM	125	124	126	130	127	125	127	125	124	124	124	125	0	
1:27:29 PM	125	124	126	130	127	125	127	126	124	124	124	125	0	
1:27:29 PM	125	124	126	130	127	125	127	126	124	124	125	125	0	
1:27:29 PM	125	124	126	130	127	125	127	126	124	124	125	125	0	
1:27:29 PM	125	124	126	130	127	125	127	126	124	124	125	125	0	
1:27:29 PM	125	124	126	130	127	125	127	126	123	122	122	123	0	
1:27:29 PM	124	123	126	131	126	125	128	132	136	131	126	125	0	
1:27:29 PM	125	126	129	129	125	127	132	145	167	165	152	146	0	
1:27:29 PM	138	148	137	112	128	142	137	135	168	183	176	167	0	
1:27:29 PM	153	171	145	92	131	158	125	91	117	152	160	159	0	
1:27:29 PM	148	161	140	100	132	151	99	73	87	114	129	133	0	
1:27:29 PM	131	132	128	123	129	130	95	103	106	111	118	121	0	
1:27:29 PM	123	119	124	134	127	122	116	126	122	120	121	122	0	
1:27:29 PM	123	121	125	133	126	123	128	129	124	121	122	123	0	
1:27:29 PM	124	122	125	132	127	124	129	129	124	122	122	123	0	
1:27:29 PM	124	122	125	132	127	124	129	129	124	122	122	123	0	
1:27:29 PM	124	122	125	132	127	124	129	129	124	122	123	123	0	
1:27:29 PM	124	122	125	131	127	124	129	129	124	122	123	123	0	
1:27:29 PM	124	122	125	131	127	124	129	129	125	122	123	124	0	
1:27:29 PM	124	123	126	131	127	124	129	129	125	123	123	124	0	
1:27:29 PM	124	123	126	131	127	124	129	129	125	123	123	124	0	
1:27:29 PM	125	123	126	131	127	124	129	128	125	123	123	124	0	
1:27:29 PM	125	123	126	131	127	124	129	128	125	123	123	124	0	
1:27:29 PM	125	123	126	131	127	125	129	128	125	123	123	124	0	
1:27:29 PM	125	123	126	130	127	125	129	128	125	123	124	124	0	
1:27:29 PM	125	124	126	130	127	125	128	129	127	125	124	125	0	
1:27:29 PM	126	125	126	130	127	125	129	130	131	128	125	126	0	
1:27:29 PM	128	127	127	127	128	127	129	132	137	132	128	129	0	
1:27:29 PM	130	131	128	124	128	129	130	135	142	137	131	131	0	
1:27:29 PM	132	134	129	121	129	131	131	138	147	142	134	133	0	
1:27:29 PM	135	137	130	119	130	133	132	141	150	145	137	134	0	
1:27:29 PM	136	139	131	117	130	135	132	142	153	147	139	135	0	
1:27:29 PM	137	141	131	116	131	136	132	142	154	148	139	136	0	
1:27:29 PM	138	141	131	115	131	136	133	142	153	148	139	136	0	
1:27:29 PM	138	141	131	115	131	136	133	142	151	146	138	135	0	
1:27:29 PM	137	140	130	116	131	135	132	140	146	143	137	134	0	
1:27:29 PM	135	138	130	118	130	134	132	138	141	137	135	132	0	
1:27:29 PM	133	135	130	121	129	132	130	134	135	132	132	129	0	
1:27:30 PM	130	131	128	124	128	130	129	130	128	126	128	127	0	
1:27:30 PM	127	126	127	128	127	127	128	126	121	121	124	124	0	
1:27:30 PM	124	123	126	131	126	124	127	124	118	119	122	123	0	
1:27:30 PM	123	121	125	133	126	123	127	124	118	119	121	123	0	
1:27:30 PM	123	121	125	133	126	123	127	124	119	119	121	123	0	
1:27:30 PM	123	121	125	133	126	123	127	124	119	119	122	123	0	
1:27:30 PM	123	121	125	133	126	123	127	124	119	120	122	123	0	
1:27:30 PM	123	121	125	132	126	123	127	124	119	120	122	123	0	
1:27:30 PM	123	121	126	132	126	123	127	124	120	120	122	123	0	
1:27:30 PM	123	122	126	132	126	124	127	124	120	120	122	123	0	
1:27:30 PM	124	122	126	132	126	124	127	125	120	121	123	124	0	
1:27:30 PM	124	122	126	132	126	124	127	125	121	121	123	124	0	
1:27:30 PM	124	122	126	132	126	124	127	125	121	121	123	124	0	
1:27:30 PM	124	122	126	132	126	124	127	125	121	121	123	124	0	
1:27:30 PM	124	123	126	131	126	124	127	125	121	121	123	124	0	
1:27:30 PM	124	123	126	131	127	124	127	125	121	122	123	124	0	
1:27:30 PM	124	123	126	131	127	124	127	125	122	122	124	124	0	
1:27:30 PM	124	123	126	131	127	125	127	125	122	122	124	124	0	
1:27:30 PM	124	123	126	131	127	125	127	125	122	122	124	125	0	
1:27:30 PM	125	123	126	131	127	125	127	125	122	122	124	125	0	
1:27:30 PM	125	123	126	131	127	125	127	125	122	123	124	125	0	
1:27:30 PM	125	124	126	131	127	125	127	125	122	123	124	125	0	
1:27:30 PM	125	124	126	130	127	125	127	126	123	123	124	125	0	
1:27:30 PM	125	124	126	130	127	125	127	126	123	123	124	125	0	
1:27:30 PM	125	124	126	130	127	125	127	126	123	123	124	125	0	
1:27:30 PM	125	124	126	130	127	125	127	126	123	123	125	125	0	
1:27:30 PM	125	124	126	130	127	125	127	127	125	125	126	126	0	
1:27:30 PM	126	125	127	129	127	126	127	129	128	128	129	128	0	
1:27:30 PM	128	129	128	126	128	128	128	131	130	130	131	130	0	
1:27:30 PM	131	132	129	123	128	131	129	132	131	131	132	131	0	
1:27:30 PM	132	134	129	122	129	131	129	131	130	131	132	131	0	
1:27:30 PM	132	133	129	122	129	131	129	130	130	130	131	130	0	
1:27:30 PM	130	131	129	124	128	130	128	128	127	127	128	127	0	
1:27:30 PM	127	127	127	128	127	127	127	126	124	124	125	125	0	
1:27:30 PM	125	124	126	130	127	125	127	125	123	123	124	125	0	
1:27:30 PM	125	124	126	130	127	125	127	125	123	123	124	125	0	
1:27:30 PM	125	124	126	130	127	125	127	125	123	124	124	125	0	
1:27:30 PM	125	124	126	130	127	125	127	125	123	124	124	125	0	
1:27:30 PM	125	124	126	130	127	125	127	126	124	124	125	125	0	
1:27:30 PM	125	124	126	130	127	125	127	126	124	124	125	125	0	
1:27:30 PM	125	124	126	130	127	125	127	126	124	124	125	125	0	
1:27:30 PM	125	124	126	130	127	125	127	126	124	124	125	125	0	
1:27:30 PM	125	124	126	130	127	125	127	125	123	122	123	123	0	
1:27:30 PM	124	123	126	131	126	125	128	131	134	130	125	124	0	
1:27:30 PM	124	125	128	130	125	127	132	144	165	162	149	144	0	
1:27:30 PM	136	145	136	114	127	141	137	137	170	183	175	167	0	
1:27:30 PM	153	171	145	93	131	158	127	94	121	156	163	161	0	
1:27:30 PM	150	163	141	98	132	152	101	73	87	116	130	135	0	
1:27:30 PM	132	133	129	122	129	131	94	100	104	110	118	122	0	
1:27:30 PM	123	119	124	133	127	122	114	125	122	119	121	122	0	
1:27:30 PM	123	121	125	133	126	123	128	129	124	122	122	123	0	
1:27:30 PM	124	122	125	132	127	124	129	129	124	122	122	123	0	
1:27:30 PM	124	122	125	132	127	124	129	129	124	122	122	123	0	
1:27:30 PM	124	122	125	132	127	124	129	129	124	122	122	123	0	
1:27:30 PM	124	122	126	131	127	124	129	129	124	122	123	123	0	
1:27:30 PM	124	123	126	131	127	124	129	129	124	122	123	123	0	
1:27:30 PM	124	123	126	131	127	124	129	129	124	123	123	124	0	
1:27:30 PM	125	123	126	131	127	124	129	129	125	123	123	124	0	
1:27:30 PM	125	123	126	131	127	124	129	129	125	123	123	124	0	
1:27:30 PM	125	123	126	131	127	124	129	128	125	123	123	124	0	
1:27:30 PM	125	123	126	131	127	125	129	128	125	123	124	124	0	
1:27:30 PM	125	123	126	131	127	125	129	128	125	123	124	124	0	
1:27:30 PM	125	124	126	130	127	125	128	129	127	124	124	125	0	
1:27:30 PM	126	124	126	130	127	125	128	130	131	128	125	126	0	
1:27:30 PM	127	127	127	128	128	127	129	132	136	132	128	128	0	
1:27:30 PM	130	130	128	125	128	129	130	135	142	137	131	131	0	
1:27:30 PM	132	134	129	122	129	131	131	138	147	142	134	133	0	
1:27:30 PM	134	137	130	119	130	133	132	141	150	145	137	134	0	
1:27:30 PM	136	139	131	117	130	135	132	142	153	147	139	135	0	
1:27:30 PM	137	141	131	116	130	136	132	142	154	148	139	136	0	
1:27:30 PM	138	141	131	115	131	136	133	142	153	148	139	136	0	
1:27:30 PM	138	141	131	115	131	136	133	142	151	146	138	135	0	
1:27:30 PM	137	140	130	116	131	135	132	140	146	143	137	134	0	
1:27:30 PM	135	138	130	118	130	134	132	138	141	138	135	132	0	
1:27:30 PM	133	135	130	121	129	132	130	135	135	132	132	130	0	
1:27:30 PM	130	131	129	124	128	130	129	131	128	126	128	127	0	
1:27:30 PM	127	127	127	128	127	127	128	127	122	121	124	124	0	
1:27:30 PM	124	123	126	131	126	125	127	124	119	119	122	123	0	
1:27:30 PM	123	121	126	133	126	123	127	124	118	119	121	123	0	
1:27:30 PM	123	120	125	133	126	123	127	124	119	119	121	123	0	
1:27:30 PM	123	121	125	133	126	123	127	124	119	119	122	123	0	
1:27:30 PM	123	121	125	133	126	123	127	124	119	120	122	123	0	
1:27:30 PM	123	121	125	133	126	123	127	124	119	120	122	123	0	
1:27:30 PM	123	121	126	132	126	123	127	124	120	120	122	123	0	
1:27:30 PM	123	122	126	132	126	124	127	124	120	120	122	124	0	
1:27:30 PM	124	122	126	132	126	124	127	125	120	121	123	124	0	
1:27:30 PM	124	122	126	132	126	124	127	125	120	121	123	124	0	
1:27:30 PM	124	122	126	132	126	124	127	125	121	121	123	124	0	
1:27:30 PM	124	122	126	132	126	124	127	125	121	121	123	124	0	
1:27:30 PM	124	123	126	131	126	124	127	125	121	121	123	124	0	
1:27:30 PM	124	123	126	131	126	124	127	125	121	122	123	124	0	
1:27:30 PM	124	123	126	131	126	124	127	125	122	122	123	124	0	
1:27:30 PM	124	123	126	131	126	125	127	125	122	122	124	124	0	
1:27:30 PM	124	123	126	131	127	125	127	125	122	122	124	125	0	
1:27:30 PM	125	123	126	131	127	125	127	125	122	122	124	125	0	
1:27:30 PM	125	124	126	131	127	125	127	125	122	123	124	125	0	
1:27:30 PM	125	124	126	130	127	125	127	125	123	123	124	125	0	
1:27:30 PM	125	124	126	130	127	125	127	126	123	123	124	125	0	
1:27:30 PM	125	124	126	130	127	125	127	126	123	123	124	125	0	
1:27:30 PM	125	124	126	130	127	125	127	126	123	123	124	125	0	
1:27:31 PM	125	124	126	130	127	125	127	126	123	123	125	125	0	
1:27:31 PM	125	124	126	130	127	125	127	127	124	125	126	126	0	
1:27:31 PM	126	125	127	129	127	126	127	128	128	128	129	128	0	
1:27:31 PM	128	129	128	126	128	128	128	131	130	130	131	130	0	
1:27:31 PM	131	132	129	123	128	130	129	132	131	131	132	131	0	
1:27:31 PM	132	134	129	122	129	131	129	131	131	131	132	131	0	
1:27:31 PM	132	133	129	122	129	131	129	130	130	130	131	130	0	
1:27:31 PM	130	131	129	124	128	130	128	128	127	127	128	127	0	
1:27:31 PM	127	127	127	127	127	127	128	126	124	124	125	125	0	
1:27:31 PM	125	124	126	130	127	125	127	125	123	123	124	125	0	
1:27:31 PM	125	124	126	130	127	125	127	125	123	123	124	125	0	
1:27:31 PM	125	124	126	130	127	125	127	125	123	123	124	125	0	
1:27:31 PM	125	124	126	130	127	125	127	126	124	124	124	125	0	
1:27:31 PM	125	124	126	130	127	125	127	126	124	124	125	125	0	
1:27:31 PM	125	124	126	130	127	125	127	126	124	124	125	125	0	
1:27:31 PM	125	124	126	130	127	125	127	126	124	124	125	125	0	
1:27:31 PM	125	124	126	130	127	125	127	126	124	124	125	125	0	
1:27:31 PM	125	124	126	130	127	125	127	125	122	122	123	124	0	
1:27:31 PM	124	123	126	131	126	125	127	130	132	128	124	124	0	
1:27:31 PM	124	125	128	130	125	126	131	144	162	159	147	141	0	
1:27:31 PM	135	143	136	115	127	139	137	139	171	183	175	166	0	
1:27:31 PM	152	170	145	94	131	157	128	98	125	159	165	163	0	
1:27:31 PM	151	165	142	97	132	153	103	72	88	118	132	136	0	
1:27:31 PM	133	135	129	121	129	132	94	98	102	110	118	122	0	
1:27:31 PM	123	120	124	133	127	122	112	124	121	119	121	122	0	
1:27:31 PM	123	120	125	133	126	123	127	129	124	121	122	123	0	
1:27:31 PM	124	122	125	132	127	124	129	129	124	122	122	123	0	
1:27:31 PM	124	122	125	132	127	124	129	129	124	122	122	123	0	
1:27:31 PM	124	122	125	132	127	124	129	129	124	122	122	123	0	
1:27:31 PM	124	122	125	131	127	124	129	129	124	122	123	123	0	
1:27:31 PM	124	122	125	131	127	124	129	129	124	122	123	123	0	
1:27:31 PM	124	123	126	131	127	124	129	129	125	123	123	124	0	
1:27:31 PM	124	123	126	131	127	124	129	129	125	123	123	124	0	
1:27:31 PM	125	123	126	131	127	124	129	129	125	123	123	124	0	
1:27:31 PM	125	123	126	131	127	124	129	128	125	123	123	124	0	
1:27:31 PM	125	123	126	131	127	125	128	128	125	123	123	124	0	
1:27:31 PM	125	123	126	130	127	125	128	128	125	123	124	124	0	
1:27:31 PM	125	124	126	130	127	125	128	129	127	124	124	125	0	
1:27:31 PM	125	124	126	130	127	125	128	130	131	127	125	126	0	
1:27:31 PM	127	127	127	128	128	127	129	132	136	132	128	128	0	
1:27:31 PM	130	130	128	125	128	129	130	135	141	137	130	130	0	
1:27:31 PM	132	133	129	122	129	131	131	138	146	141	134	133	0	
1:27:31 PM	134	137	130	119	130	133	131	141	150	145	137	134	0	
1:27:31 PM	136	139	130	117	130	135	132	142	153	147	138	135	0	
1:27:31 PM	137	141	131	116	130	136	132	142	154	148	139	136	0	
1:27:31 PM	138	141	131	115	131	136	132	142	154	148	139	136	0	
1:27:31 PM	138	141	131	115	131	136	133	142	151	147	138	135	0	
1:27:31 PM	137	140	130	116	131	135	132	140	147	143	137	134	0	
1:27:31 PM	136	138	130	118	130	134	132	138	142	138	135	132	0	
1:27:31 PM	133	136	130	120	129	133	130	135	136	133	132	130	0	
1:27:31 PM	130	131	129	124	128	130	129	131	129	127	128	127	0	
1:27:31 PM	127	127	127	128	127	127	128	127	122	121	124	125	0	
1:27:31 PM	124	123	126	131	126	125	127	124	119	119	122	123	0	
1:27:31 PM	123	121	125	133	126	123	127	124	118	119	121	123	0	
1:27:31 PM	123	121	125	133	126	123	127	124	119	119	121	123	0	
1:27:31 PM	123	121	125	133	126	123	127	124	119	119	122	123	0	
1:27:31 PM	123	121	125	133	126	123	127	124	119	119	122	123	0	
1:27:31 PM	123	121	125	132	126	123	127	124	119	120	122	123	0	
1:27:31 PM	123	121	125	132	126	123	127	124	120	120	122	123	0	
1:27:31 PM	124	122	125	132	126	124	127	124	120	120	122	123	0	
1:27:31 PM	124	122	126	132	126	124	127	125	120	121	123	124	0	
1:27:31 PM	124	122	126	132	126	124	127	125	121	121	123	124	0	
1:27:31 PM	124	122	126	132	126	124	127	125	121	121	123	124	0	
1:27:31 PM	124	122	126	132	126	124	127	125	121	121	123	124	0	
1:27:31 PM	124	122	126	131	126	124	127	125	121	121	123	124	0	
1:27:31 PM	124	123	126	131	126	124	127	125	121	122	123	124	0	
1:27:31 PM	124	123	126	131	127	124	127	125	122	122	124	124	0	
1:27:31 PM	124	123	126	131	127	124	127	125	122	122	124	124	0	
1:27:31 PM	124	123	126	131	127	125	127	125	122	122	124	125	0	
1:27:31 PM	125	123	126	131	127	125	127	125	122	122	124	125	0	
1:27:31 PM	125	123	126	131	127	125	127	125	122	123	124	125	0	
1:27:31 PM	125	124	126	131	127	125	127	125	122	123	124	125	0	
1:27:31 PM	125	124	126	130	127	125	127	126	123	123	124	125	0	
1:27:31 PM	125	124	126	130	127	125	127	126	123	123	124	125	0	
1:27:31 PM	125	124	126	130	127	125	127	126	123	123	124	125	0	
1:27:31 PM	125	124	126	130	127	125	127	126	123	123	125	125	0	
1:27:31 PM	125	124	126	130	127	125	127	126	124	125	126	126	0	
1:27:31 PM	126	125	127	129	127	126	127	128	127	128	129	128	0	
1:27:31 PM	128	128	128	126	127	128	128	131	130	130	131	130	0	
1:27:31 PM	131	132	129	123	128	130	129	132	131	131	132	131	0	
1:27:31 PM	132	134	129	122	129	131	129	131	131	131	132	131	0	
1:27:31 PM	132	133	129	122	129	131	129	130	130	130	131	130	0	
1:27:31 PM	130	131	129	124	128	130	129	128	128	127	128	128	0	
1:27:31 PM	127	128	127	127	127	128	128	126	125	124	125	126	0	
1:27:31 PM	125	124	126	130	127	125	127	125	123	123	124	125	0	
1:27:31 PM	125	124	126	130	127	125	127	125	123	123	124	125	0	
1:27:31 PM	125	124	126	130	127	125	127	125	123	123	124	125	0	
1:27:31 PM	125	124	126	130	127	125	127	126	124	124	124	125	0	
1:27:31 PM	125	124	126	130	127	125	127	126	124	124	125	125	0	
1:27:31 PM	125	124	126	130	127	125	127	126	124	124	125	125	0	
1:27:31 PM	125	124	126	130	127	125	127	126	124	124	125	125	0	
1:27:31 PM	125	124	126	130	127	125	127	126	124	124	125	125	0	
1:27:31 PM	125	124	126	130	127	125	127	126	123	123	123	124	0	
1:27:31 PM	124	123	126	131	126	125	127	130	131	127	123	123	0	
1:27:31 PM	124	124	128	131	125	126	131	143	160	156	144	140	0	
1:27:31 PM	134	141	135	117	127	138	137	141	173	183	174	165	0	
1:27:31 PM	151	168	144	95	131	156	130	101	130	162	167	164	0	
1:27:31 PM	152	167	142	96	132	154	105	72	88	120	134	138	0	
1:27:31 PM	134	137	130	119	129	134	93	95	100	109	119	122	0	
1:27:31 PM	124	120	124	133	127	122	110	123	121	118	120	122	0	
1:27:32 PM	123	120	125	133	126	122	127	129	124	121	122	123	0	
1:27:32 PM	124	122	125	132	127	123	129	129	124	122	122	123	0	
1:27:32 PM	124	122	125	132	127	124	129	129	124	122	122	123	0	
1:27:32 PM	124	122	125	132	127	124	129	129	124	122	122	123	0	
1:27:32 PM	124	122	125	131	127	124	129	129	124	122	123	123	0	
1:27:32 PM	124	122	125	131	127	124	129	129	124	122	123	123	0	
1:27:32 PM	124	123	126	131	127	124	129	129	125	123	123	124	0	
1:27:32 PM	124	123	126	131	127	124	129	129	125	123	123	124	0	
1:27:32 PM	125	123	126	131	127	124	129	129	125	123	123	124	0	
1:27:32 PM	125	123	126	131	127	124	129	128	125	123	123	124	0	
1:27:32 PM	125	123	126	131	127	125	129	128	125	123	123	124	0	
1:27:32 PM	125	123	126	131	127	125	129	128	125	123	124	124	0	
1:27:32 PM	125	124	126	130	127	125	128	129	126	124	124	125	0	
1:27:32 PM	125	124	126	130	127	125	128	130	130	127	125	126	0	
1:27:32 PM	127	126	127	128	128	126	129	132	135	132	127	128	0	
1:27:32 PM	130	130	128	125	128	129	130	135	141	136	130	130	0	
1:27:32 PM	132	133	129	122	129	131	131	138	146	141	133	132	0	
1:27:32 PM	134	136	129	119	130	133	131	140	150	145	137	134	0	
1:27:32 PM	136	139	130	117	130	135	132	142	152	147	138	135	0	
1:27:32 PM	137	141	131	116	130	136	132	142	154	148	139	136	0	
1:27:32 PM	138	141	131	115	131	136	132	142	154	148	139	136	0	
1:27:32 PM	138	141	131	115	131	136	133	142	152	147	138	135	0	
1:27:32 PM	137	140	130	116	131	135	133	141	147	143	137	134	0	
1:27:32 PM	136	139	130	117	130	134	132	138	142	138	136	133	0	
1:27:32 PM	133	136	130	120	129	133	131	135	136	133	133	130	0	
1:27:32 PM	130	132	129	124	128	130	129	131	129	127	129	127	0	
1:27:32 PM	127	127	127	127	127	127	128	127	123	122	124	125	0	
1:27:32 PM	124	123	126	131	126	125	127	124	119	119	122	123	0	
1:27:32 PM	123	121	125	133	126	123	127	124	118	119	121	123	0	
1:27:32 PM	123	120	125	133	126	123	127	124	119	119	121	123	0	
1:27:32 PM	123	121	125	133	126	123	127	124	119	119	122	123	0	
1:27:32 PM	123	121	125	133	126	123	127	124	119	120	122	123	0	
1:27:32 PM	123	121	125	133	126	123	127	124	119	120	122	123	0	
1:27:32 PM	123	121	125	132	126	123	127	124	120	120	122	123	0	
1:27:32 PM	123	122	126	132	126	124	127	124	120	120	122	123	0	
1:27:32 PM	124	122	126	132	126	124	127	125	120	121	123	124	0	
1:27:32 PM	124	122	126	132	126	124	127	125	120	121	123	124	0	
1:27:32 PM	124	122	126	132	126	124	127	125	121	121	123	124	0	
1:27:32 PM	124	122	126	132	126	124	127	125	121	121	123	124	0	
1:27:32 PM	124	123	126	131	126	124	127	125	121	121	123	124	0	
1:27:32 PM	124	123	126	131	126	124	127	125	121	122	123	124	0	
1:27:32 PM	124	123	126	131	126	124	127	125	122	122	123	124	0	
1:27:32 PM	124	123	126	131	126	125	127	125	122	122	124	124	0	
1:27:32 PM	125	123	126	131	127	125	127	125	122	122	124	125	0	
1:27:32 PM	125	123	126	131	127	125	127	125	122	122	124	125	0	
1:27:32 PM	125	123	126	131	127	125	127	125	122	123	124	125	0	
1:27:32 PM	125	124	126	130	127	125	127	126	123	123	124	125	0	
1:27:32 PM	125	124	126	130	127	125	127	126	123	123	124	125	0	
1:27:32 PM	125	124	126	130	127	125	127	126	123	123	124	125	0	
1:27:32 PM	125	124	126	130	127	125	127	126	123	123	124	125	0	
1:27:32 PM	125	124	126	130	127	125	127	126	123	123	125	125	0	
1:27:32 PM	125	124	126	130	127	125	127	126	124	125	126	126	0	
1:27:32 PM	126	125	127	129	127	126	127	128	127	127	129	127	0	
1:27:32 PM	128	128	128	127	127	128	128	130	130	130	131	130	0	
1:27:32 PM	130	132	129	124	128	130	129	132	131	131	132	131	0	
1:27:32 PM	132	134	129	122	129	131	129	131	131	131	132	131	0	
1:27:32 PM	132	133	129	122	129	131	129	130	130	130	131	130	0	
1:27:32 PM	130	132	129	124	128	130	128	128	128	128	129	128	0	
1:27:32 PM	127	128	128	127	127	128	128	126	125	125	126	126	0	
1:27:32 PM	125	125	127	130	127	126	127	125	123	123	124	125	0	
1:27:32 PM	125	124	126	130	127	125	127	125	123	123	124	125	0	
1:27:32 PM	125	124	126	130	127	125	127	125	123	124	124	125	0	
1:27:32 PM	125	124	126	130	127	125	127	126	124	124	124	125	0	
1:27:32 PM	125	124	126	130	127	125	127	126	124	124	124	125	0	
1:27:32 PM	125	124	126	130	127	125	127	126	124	124	125	125	0	
1:27:32 PM	125	124	126	130	127	125	127	126	124	124	125	125	0	
1:27:32 PM	125	124	126	130	127	125	127	126	124	124	125	125	0	
1:27:32 PM	125	124	126	130	127	125	127	126	123	123	123	124	0	
1:27:32 PM	124	123	126	131	126	125	127	129	129	126	123	123	0	
1:27:32 PM	123	124	128	131	125	126	131	142	157	153	142	138	0	
1:27:32 PM	133	139	134	119	127	137	136	142	174	183	173	163	0	
1:27:32 PM	150	167	144	96	130	156	131	105	135	165	169	165	0	
1:27:32 PM	152	168	143	95	132	156	107	73	89	122	136	140	0	
1:27:32 PM	136	139	131	117	130	135	93	92	98	109	119	123	0	
1:27:32 PM	124	121	124	132	127	122	109	122	120	118	120	122	0	
1:27:32 PM	123	120	125	133	126	122	126	129	124	121	122	123	0	
1:27:32 PM	124	122	125	132	127	124	129	129	124	122	122	123	0	
1:27:32 PM	124	122	125	132	127	124	129	129	124	122	122	123	0	
1:27:32 PM	124	122	125	132	127	124	129	129	124	122	122	123	0	
1:27:32 PM	124	122	125	131	127	124	129	129	124	122	123	123	0	
1:27:32 PM	124	122	125	131	127	124	129	129	124	122	123	123	0	
1:27:32 PM	124	123	126	131	127	124	129	129	125	123	123	124	0	
1:27:32 PM	125	123	126	131	127	124	129	129	125	123	123	124	0	
1:27:32 PM	125	123	126	131	127	124	129	129	125	123	123	124	0	
1:27:32 PM	125	123	126	131	127	124	129	128	125	123	123	124	0	
1:27:32 PM	125	123	126	131	127	125	129	128	125	123	124	124	0	
1:27:32 PM	125	123	126	131	127	125	129	128	125	123	124	124	0	
1:27:32 PM	125	124	126	130	127	125	128	128	126	124	124	125	0	
1:27:32 PM	125	124	126	130	127	125	128	129	130	127	125	126	0	
1:27:32 PM	127	126	127	128	127	126	129	132	135	131	127	128	0	
1:27:32 PM	129	129	127	125	128	128	130	134	141	136	130	130	0	
1:27:32 PM	132	133	129	122	129	131	131	137	146	141	133	132	0	
1:27:32 PM	134	136	129	120	130	133	131	140	150	144	136	134	0	
1:27:32 PM	136	139	130	117	130	135	132	142	152	147	138	135	0	
1:27:32 PM	137	140	131	116	130	136	132	142	154	148	139	136	0	
1:27:32 PM	138	141	131	115	131	136	132	142	154	148	139	136	0	
1:27:32 PM	138	141	131	115	131	136	133	142	152	147	138	135	0	
1:27:32 PM	137	140	130	116	131	135	132	141	147	144	138	134	0	
1:27:32 PM	136	139	130	117	130	134	132	139	142	139	136	133	0	
1:27:32 PM	133	136	130	120	129	133	131	136	137	134	133	130	0	
1:27:33 PM	131	132	129	123	128	131	130	132	130	128	129	128	0	
1:27:33 PM	128	128	128	127	127	128	128	127	123	122	125	125	0	
1:27:33 PM	125	124	126	131	126	125	127	125	119	119	122	123	0	
1:27:33 PM	123	121	126	133	126	123	127	124	118	119	121	123	0	
1:27:33 PM	123	120	125	133	126	123	127	124	118	119	121	123	0	
1:27:33 PM	123	121	125	133	126	123	127	124	119	119	122	123	0	
1:27:33 PM	123	121	125	133	126	123	127	124	119	119	122	123	0	
1:27:33 PM	123	121	125	133	126	123	127	124	119	120	122	123	0	
1:27:33 PM	123	121	125	132	126	123	127	124	120	120	122	123	0	
1:27:33 PM	123	122	126	132	126	124	127	125	120	120	122	123	0	
1:27:33 PM	124	122	126	132	126	124	127	125	120	121	123	124	0	
1:27:33 PM	124	122	126	132	126	124	127	125	120	121	123	124	0	
1:27:33 PM	124	122	126	132	126	124	127	125	121	121	123	124	0	
1:27:33 PM	124	122	126	132	126	124	127	125	121	121	123	124	0	
1:27:33 PM	124	122	126	131	126	124	127	125	121	121	123	124	0	
1:27:33 PM	124	123	126	131	126	124	127	125	121	122	123	124	0	
1:27:33 PM	124	123	126	131	126	124	127	125	122	122	123	124	0	
1:27:33 PM	124	123	126	131	127	124	127	125	122	122	124	124	0	
1:27:33 PM	124	123	126	131	127	125	127	125	122	122	124	125	0	
1:27:33 PM	125	123	126	131	127	125	127	125	122	122	124	125	0	
1:27:33 PM	125	123	126	131	127	125	127	125	122	123	124	125	0	
1:27:33 PM	125	124	126	131	127	125	127	126	122	123	124	125	0	
1:27:33 PM	125	124	126	130	127	125	127	126	123	123	124	125	0	
1:27:33 PM	125	124	126	130	127	125	127	126	123	123	124	125	0	
1:27:33 PM	125	124	126	130	127	125	127	126	123	123	124	125	0	
1:27:33 PM	125	124	126	130	127	125	127	126	123	123	125	125	0	
1:27:33 PM	125	124	126	130	127	125	127	126	124	124	126	126	0	
1:27:33 PM	126	125	127	129	127	126	127	128	127	127	128	127	0	
1:27:33 PM	128	128	127	127	127	128	128	130	130	130	131	130	0	
1:27:33 PM	130	132	129	124	128	130	129	131	131	131	132	131	0	
1:27:33 PM	132	133	129	122	129	131	129	131	131	131	132	131	0	
1:27:33 PM	132	133	129	122	129	131	129	131	130	130	131	130	0	
1:27:33 PM	130	132	129	124	128	130	129	128	128	128	129	128	0	
1:27:33 PM	128	128	128	127	127	128	128	126	125	125	126	126	0	
1:27:33 PM	126	125	127	129	127	126	127	125	123	123	124	125	0	
1:27:33 PM	125	124	126	130	127	125	127	125	123	123	124	125	0	
1:27:33 PM	125	124	126	130	127	125	127	125	123	123	124	125	0	
1:27:33 PM	125	124	126	130	127	125	127	125	123	124	124	125	0	
1:27:33 PM	125	124	126	130	127	125	127	126	124	124	124	125	0	
1:27:33 PM	125	124	126	130	127	125	127	126	124	124	125	125	0	
1:27:33 PM	125	124	126	130	127	125	127	126	124	124	125	125	0	
1:27:33 PM	125	124	126	130	127	125	127	126	124	124	125	125	0	
1:27:33 PM	125	124	126	130	127	125	127	125	123	123	124	124	0	
1:27:33 PM	125	124	126	131	126	125	127	128	128	125	122	123	0	
1:27:33 PM	123	123	127	131	125	125	130	141	155	150	140	136	0	
1:27:33 PM	131	137	133	120	126	135	136	143	175	183	172	162	0	
1:27:33 PM	149	166	144	97	130	155	132	109	139	168	172	166	0	
1:27:33 PM	153	169	144	94	132	156	109	73	90	124	138	142	0	
1:27:33 PM	137	141	132	116	130	137	93	89	96	109	119	123	0	
1:27:33 PM	124	121	124	132	127	123	107	121	119	117	120	122	0	
1:27:33 PM	123	120	125	133	126	122	126	129	124	121	122	123	0	
1:27:33 PM	124	122	125	132	127	123	129	129	124	122	122	123	0	
1:27:33 PM	124	122	125	132	127	124	129	129	124	122	122	123	0	
1:27:33 PM	124	122	125	132	127	124	129	129	124	122	122	123	0	
1:27:33 PM	124	122	125	131	127	124	129	129	124	122	123	123	0	
1:27:33 PM	124	122	125	131	127	124	129	129	124	122	123	123	0	
1:27:33 PM	124	123	125	131	127	124	129	129	125	123	123	124	0	
1:27:33 PM	125	123	126	131	127	124	129	129	125	123	123	124	0	
1:27:33 PM	125	123	126	131	127	124	129	128	125	123	123	124	0	
1:27:33 PM	125	123	126	131	127	124	129	128	125	123	123	124	0	
1:27:33 PM	125	123	126	131	127	125	129	128	125	123	124	124	0	
1:27:33 PM	125	123	126	131	127	125	128	128	125	123	124	124	0	
1:27:33 PM	125	123	126	130	127	125	128	128	126	124	124	124	0	
1:27:33 PM	125	124	126	130	127	125	128	129	129	126	125	126	0	
1:27:33 PM	127	126	127	128	127	126	129	132	135	131	127	128	0	
1:27:33 PM	129	129	128	126	128	128	130	134	140	136	130	130	0	
1:27:33 PM	132	133	128	123	129	131	131	137	145	141	133	132	0	
1:27:33 PM	134	136	129	120	130	133	131	140	149	144	136	134	0	
1:27:33 PM	136	138	130	118	130	134	132	142	152	147	138	135	0	
1:27:33 PM	137	140	131	116	130	136	132	142	154	148	139	136	0	
1:27:33 PM	138	141	131	115	131	136	132	142	154	148	139	136	0	
1:27:33 PM	138	141	131	115	131	136	133	142	152	147	138	135	0	
1:27:33 PM	137	140	130	116	131	135	133	141	148	144	138	134	0	
1:27:33 PM	136	139	130	117	130	135	132	139	143	139	136	133	0	
1:27:33 PM	134	136	130	120	129	133	131	136	137	134	133	131	0	
1:27:33 PM	131	132	129	123	128	131	130	132	130	128	129	128	0	
1:27:33 PM	128	128	128	127	127	128	128	128	123	122	125	125	0	
1:27:33 PM	125	124	127	130	126	125	127	125	119	119	122	123	0	
1:27:33 PM	123	121	126	133	126	123	127	124	118	119	121	123	0	
1:27:33 PM	123	120	125	133	126	123	127	124	118	119	121	123	0	
1:27:33 PM	123	121	125	133	126	123	127	124	119	119	122	123	0	
1:27:33 PM	123	121	125	133	126	123	127	124	119	119	122	123	0	
1:27:33 PM	123	121	125	133	126	123	127	124	119	120	122	123	0	
1:27:33 PM	123	121	125	132	126	123	127	124	120	120	122	123	0	
1:27:33 PM	123	122	126	132	126	124	127	124	120	120	122	123	0	
1:27:33 PM	124	122	126	132	126	124	127	125	120	120	122	124	0	
1:27:33 PM	124	122	126	132	126	124	127	125	120	121	123	124	0	
1:27:33 PM	124	122	126	132	126	124	127	125	121	121	123	124	0	
1:27:33 PM	124	122	126	132	126	124	127	125	121	121	123	124	0	
1:27:33 PM	124	123	126	131	126	124	127	125	121	121	123	124	0	
1:27:33 PM	124	123	126	131	126	124	127	125	121	122	123	124	0	
1:27:33 PM	124	123	126	131	127	124	127	125	122	122	123	124	0	
1:27:33 PM	124	123	126	131	127	124	127	125	122	122	124	124	0	
1:27:33 PM	124	123	126	131	127	125	127	125	122	122	124	125	0	
1:27:33 PM	124	123	126	131	127	125	127	125	122	122	124	125	0	
1:27:33 PM	125	123	126	131	127	125	127	125	122	123	124	125	0	
1:27:33 PM	125	124	126	131	127	125	127	125	122	123	124	125	0	
1:27:33 PM	125	124	126	130	127	125	127	125	123	123	124	125	0	
1:27:33 PM	125	124	126	130	127	125	127	126	123	123	124	125	0	
1:27:33 PM	125	124	126	130	127	125	127	126	123	123	124	125	0	
1:27:34 PM	125	124	126	130	127	125	127	126	123	123	125	125	0	
1:27:34 PM	125	124	126	130	127	125	127	126	124	124	125	125	0	
1:27:34 PM	126	125	127	130	127	126	127	128	127	127	128	127	0	
1:27:34 PM	127	128	127	127	127	127	128	130	130	130	131	130	0	
1:27:34 PM	130	131	129	124	128	130	129	131	131	131	132	131	0	
1:27:34 PM	132	133	129	122	129	131	129	131	131	131	132	131	0	
1:27:34 PM	132	133	129	122	129	131	129	131	130	130	131	130	0	
1:27:34 PM	130	132	129	123	128	130	129	128	128	128	129	128	0	
1:27:34 PM	128	128	128	126	127	128	128	126	125	125	126	126	0	
1:27:34 PM	126	125	127	129	127	126	127	125	123	123	124	125	0	
1:27:34 PM	125	124	126	130	127	125	127	125	123	123	124	125	0	
1:27:34 PM	125	124	126	130	127	125	127	125	123	123	124	125	0	
1:27:34 PM	125	124	126	130	127	125	127	125	123	124	124	125	0	
1:27:34 PM	125	124	126	130	127	125	127	126	124	124	124	125	0	
1:27:34 PM	125	124	126	130	127	125	127	126	124	124	125	125	0	
1:27:34 PM	125	124	126	130	127	125	127	126	124	124	125	125	0	
1:27:34 PM	125	124	126	130	127	125	127	126	124	124	125	125	0	
1:27:34 PM	125	124	126	130	127	125	127	126	123	123	124	124	0	
1:27:34 PM	125	124	126	130	127	125	127	128	127	124	122	123	0	
1:27:34 PM	123	123	127	132	125	125	130	139	152	147	138	134	0	
1:27:34 PM	130	136	133	122	126	134	136	144	175	181	170	161	0	
1:27:34 PM	148	164	143	98	130	154	133	113	144	171	173	167	0	
1:27:34 PM	153	170	144	93	132	157	111	74	92	127	141	144	0	
1:27:34 PM	138	143	132	114	130	138	93	87	94	109	120	124	0	
1:27:34 PM	125	122	125	131	127	123	105	120	118	117	120	122	0	
1:27:34 PM	122	120	125	134	126	122	125	129	124	121	122	123	0	
1:27:34 PM	124	122	125	132	127	123	129	129	124	122	122	123	0	
1:27:34 PM	124	122	125	132	127	124	129	129	124	122	122	123	0	
1:27:34 PM	124	122	125	132	127	124	129	129	124	122	122	123	0	
1:27:34 PM	124	122	125	131	127	124	129	129	124	122	123	123	0	
1:27:34 PM	124	122	125	131	127	124	129	129	124	122	123	123	0	
1:27:34 PM	124	123	126	131	127	124	129	129	125	123	123	124	0	
1:27:34 PM	124	123	126	131	127	124	129	129	125	123	123	124	0	
1:27:34 PM	124	123	126	131	127	124	129	128	125	123	123	124	0	
1:27:34 PM	125	123	126	131	127	124	129	128	125	123	123	124	0	
1:27:34 PM	125	123	126	131	127	125	129	128	125	123	123	124	0	
1:27:34 PM	125	123	126	131	127	125	128	128	125	123	124	124	0	
1:27:34 PM	125	124	126	130	127	125	128	128	126	124	124	124	0	
1:27:34 PM	125	124	126	130	127	125	128	129	129	126	125	125	0	
1:27:34 PM	126	126	127	129	127	126	129	131	134	130	127	128	0	
1:27:34 PM	129	129	127	126	128	128	130	134	140	135	130	130	0	
1:27:34 PM	131	132	128	123	129	130	131	137	145	140	133	132	0	
1:27:34 PM	134	136	129	120	130	132	131	140	149	144	136	134	0	
1:27:34 PM	136	138	130	118	130	134	132	142	152	147	138	135	0	
1:27:34 PM	137	140	131	116	130	136	132	142	153	148	139	136	0	
1:27:34 PM	138	141	131	115	131	136	132	142	154	148	139	136	0	
1:27:34 PM	138	141	131	115	131	136	133	142	152	147	138	135	0	
1:27:34 PM	137	140	130	116	131	135	133	141	148	144	138	134	0	
1:27:34 PM	136	139	130	117	130	135	132	139	143	140	136	133	0	
1:27:34 PM	134	137	130	119	129	133	131	136	138	134	133	131	0	
1:27:34 PM	131	133	129	123	128	131	130	132	131	129	130	128	0	
1:27:34 PM	128	128	128	127	127	128	129	128	124	123	125	125	0	
1:27:34 PM	125	124	127	130	126	125	127	125	119	119	122	123	0	
1:27:34 PM	123	121	126	132	126	124	127	124	118	119	121	122	0	
1:27:34 PM	123	120	125	133	126	123	127	124	118	119	121	123	0	
1:27:34 PM	123	121	125	133	126	123	127	124	119	119	122	123	0	
1:27:34 PM	123	121	125	133	126	123	127	124	119	119	122	123	0	
1:27:34 PM	123	121	125	133	126	123	127	124	119	120	122	123	0	
1:27:34 PM	123	121	125	132	126	123	127	124	120	120	122	123	0	
1:27:34 PM	123	122	126	132	126	124	127	124	120	120	122	123	0	
1:27:34 PM	123	122	126	132	126	124	127	125	120	121	122	124	0	
1:27:34 PM	124	122	126	132	126	124	127	125	120	121	123	124	0	
1:27:34 PM	124	122	126	132	126	124	127	125	121	121	123	124	0	
1:27:34 PM	124	122	126	132	126	124	127	125	121	121	123	124	0	
1:27:34 PM	124	122	126	131	126	124	127	125	121	121	123	124	0	
1:27:34 PM	124	123	126	131	126	124	127	125	121	122	123	124	0	
1:27:34 PM	124	123	126	131	126	124	127	125	121	122	123	124	0	
1:27:34 PM	124	123	126	131	126	124	127	125	122	122	124	124	0	
1:27:34 PM	124	123	126	131	127	125	127	125	122	122	124	125	0	
1:27:34 PM	125	123	126	131	127	125	127	125	122	122	124	125	0	
1:27:34 PM	125	123	126	131	127	125	127	125	122	123	124	125	0	
1:27:34 PM	125	124	126	131	127	125	127	125	122	123	124	125	0	
1:27:34 PM	125	124	126	130	127	125	127	125	123	123	124	125	0	
1:27:34 PM	125	124	126	130	127	125	127	126	123	123	124	125	0	
1:27:34 PM	125	124	126	130	127	125	127	126	123	123	124	125	0	
1:27:34 PM	125	124	126	130	127	125	127	126	123	123	125	125	0	
1:27:34 PM	125	124	126	130	127	125	127	126	124	124	125	125	0	
1:27:34 PM	125	125	127	130	127	126	127	128	126	127	128	127	0	
1:27:34 PM	127	127	127	127	127	127	128	130	130	130	131	129	0	
1:27:34 PM	130	131	129	124	128	130	128	132	131	131	132	131	0	
1:27:34 PM	132	133	129	122	129	131	129	132	131	131	132	131	0	
1:27:34 PM	132	133	129	122	129	131	130	131	130	130	131	130	0	
1:27:34 PM	131	132	129	123	128	130	129	129	128	128	129	128	0	
1:27:34 PM	128	129	128	126	127	128	128	126	125	125	126	126	0	
1:27:34 PM	126	125	127	129	127	126	127	125	123	123	124	125	0	
1:27:34 PM	125	124	126	130	127	125	127	125	123	123	124	125	0	
1:27:34 PM	125	124	126	130	127	125	127	125	123	123	124	125	0	
1:27:34 PM	125	124	126	130	127	125	127	125	124	124	124	125	0	
1:27:34 PM	125	124	126	130	127	125	127	126	124	124	124	125	0	
1:27:34 PM	125	124	126	130	127	125	127	126	124	124	125	125	0	
1:27:34 PM	125	124	126	130	127	125	127	126	124	124	125	125	0	
1:27:34 PM	125	124	126	130	127	125	127	126	124	124	125	125	0	
1:27:34 PM	125	124	126	130	127	125	127	126	123	123	124	125	0	
1:27:34 PM	125	124	126	130	127	125	127	127	126	123	122	122	0	
1:27:34 PM	123	123	127	132	126	125	130	138	150	145	135	133	0	
1:27:34 PM	129	134	132	123	126	133	135	145	175	180	168	159	0	
1:27:34 PM	147	162	142	100	130	152	134	116	148	174	174	167	0	
1:27:34 PM	154	171	144	92	132	158	114	75	94	130	143	146	0	
1:27:34 PM	140	146	133	112	131	140	93	84	93	109	120	125	0	
1:27:34 PM	125	123	125	130	128	124	103	118	117	116	120	122	0	
1:27:35 PM	122	120	124	134	126	122	124	128	123	121	122	123	0	
1:27:35 PM	124	121	125	132	127	123	129	129	124	122	122	123	0	
1:27:35 PM	124	122	125	132	127	124	129	129	124	122	122	123	0	
1:27:35 PM	124	122	125	132	127	124	129	129	124	122	122	123	0	
1:27:35 PM	124	122	125	131	127	124	129	129	124	122	123	123	0	
1:27:35 PM	124	122	126	131	127	124	129	129	124	122	123	123	0	
1:27:35 PM	124	123	126	131	127	124	129	129	125	123	123	124	0	
1:27:35 PM	124	123	126	131	127	124	129	129	125	123	123	124	0	
1:27:35 PM	125	123	126	131	127	124	129	129	125	123	123	124	0	
1:27:35 PM	125	123	126	131	127	124	129	128	125	123	123	124	0	
1:27:35 PM	125	123	126	131	127	125	129	128	125	123	123	124	0	
1:27:35 PM	125	123	126	131	127	125	129	128	125	123	124	124	0	
1:27:35 PM	125	123	126	130	127	125	128	128	126	124	124	124	0	
1:27:35 PM	125	124	126	130	127	125	128	129	129	126	125	125	0	
1:27:35 PM	126	125	127	129	127	126	129	131	134	130	127	127	0	
1:27:35 PM	129	129	127	126	128	128	130	134	139	135	129	130	0	
1:27:35 PM	131	132	128	123	129	130	130	137	145	140	133	132	0	
1:27:35 PM	134	135	129	120	130	132	131	140	149	144	136	134	0	
1:27:35 PM	135	138	130	118	130	134	132	142	152	146	138	135	0	
1:27:35 PM	137	140	131	116	130	136	132	142	153	148	139	136	0	
1:27:35 PM	138	141	131	115	131	136	132	142	154	148	139	136	0	
1:27:35 PM	138	141	131	115	131	136	133	142	152	147	138	135	0	
1:27:35 PM	137	141	130	116	131	135	133	141	149	145	138	134	0	
1:27:35 PM	136	139	130	117	130	135	132	139	144	140	136	133	0	
1:27:35 PM	134	137	130	119	129	133	131	136	138	135	134	131	0	
1:27:35 PM	131	133	129	123	128	131	130	133	131	129	130	128	0	
1:27:35 PM	128	129	128	126	127	128	129	128	124	123	126	125	0	
1:27:35 PM	125	124	127	130	126	126	127	125	119	119	122	123	0	
1:27:35 PM	123	121	126	132	126	124	127	124	118	119	121	123	0	
1:27:35 PM	123	120	125	133	126	123	127	124	118	119	121	123	0	
1:27:35 PM	123	121	125	133	126	123	127	124	119	119	122	123	0	
1:27:35 PM	123	121	125	133	126	123	127	124	119	119	122	123	0	
1:27:35 PM	123	121	125	133	126	123	127	124	119	120	122	123	0	
1:27:35 PM	123	121	125	132	126	123	127	124	120	120	122	123	0	
1:27:35 PM	123	121	126	132	126	124	127	124	120	120	122	123	0	
1:27:35 PM	123	122	126	132	126	124	127	125	120	120	123	124	0	
1:27:35 PM	124	122	126	132	126	124	127	125	120	121	123	124	0	
1:27:35 PM	124	122	126	132	126	124	127	125	121	121	123	124	0	
1:27:35 PM	124	122	126	132	126	124	127	125	121	121	123	124	0	
1:27:35 PM	124	122	126	131	126	124	127	125	121	121	123	124	0	
1:27:35 PM	124	123	126	131	126	124	127	125	121	122	123	124	0	
1:27:35 PM	124	123	126	131	126	124	127	125	121	122	123	124	0	
1:27:35 PM	124	123	126	131	127	124	127	125	122	122	123	124	0	
1:27:35 PM	124	123	126	131	127	125	127	125	122	122	124	125	0	
1:27:35 PM	125	123	126	131	127	125	127	125	122	122	124	125	0	
1:27:35 PM	125	123	126	131	127	125	127	125	122	122	124	125	0	
1:27:35 PM	125	124	126	130	127	125	127	125	122	123	124	125	0	
1:27:35 PM	125	124	126	130	127	125	127	125	123	123	124	125	0	
1:27:35 PM	125	124	126	130	127	125	127	126	123	123	124	125	0	
1:27:35 PM	125	124	126	130	127	125	127	126	123	123	124	125	0	
1:27:35 PM	125	124	126	130	127	125	127	126	123	123	125	125	0	
1:27:35 PM	125	124	126	130	127	125	127	126	124	124	125	125	0	
1:27:35 PM	125	124	126	130	127	125	127	127	126	127	128	127	0	
1:27:35 PM	127	127	127	128	127	127	127	130	129	129	131	129	0	
1:27:35 PM	130	131	128	124	128	130	128	131	131	131	132	131	0	
1:27:35 PM	132	133	129	122	129	131	129	131	131	131	132	131	0	
1:27:35 PM	132	134	129	122	129	131	130	131	130	130	131	130	0	
1:27:35 PM	131	132	129	123	128	130	129	129	129	129	130	129	0	
1:27:35 PM	128	129	128	126	127	129	128	126	126	125	126	126	0	
1:27:35 PM	126	125	127	129	127	126	127	125	123	123	124	125	0	
1:27:35 PM	125	124	126	130	127	125	127	125	123	123	124	125	0	
1:27:35 PM	125	124	126	130	127	125	127	125	123	123	124	125	0	
1:27:35 PM	125	124	126	130	127	125	127	125	123	124	124	125	0	
1:27:35 PM	125	124	126	130	127	125	127	126	124	124	125	125	0	
1:27:35 PM	125	124	126	130	127	125	127	126	124	124	125	125	0	
1:27:35 PM	125	124	126	130	127	125	127	126	124	124	125	125	0	
1:27:35 PM	125	124	126	130	127	125	127	126	124	124	125	125	0	
1:27:35 PM	125	124	126	130	127	125	127	126	123	123	124	125	0	
1:27:35 PM	125	124	127	130	126	125	127	127	125	123	122	122	0	
1:27:35 PM	123	122	127	132	125	125	129	137	147	142	134	131	0	
1:27:35 PM	128	132	131	124	126	132	135	145	175	179	166	157	0	
1:27:35 PM	146	160	142	102	129	151	134	120	152	176	175	168	0	
1:27:35 PM	154	171	145	92	132	158	116	77	97	132	145	148	0	
1:27:35 PM	141	148	134	110	131	141	93	82	91	109	121	126	0	
1:27:35 PM	126	124	125	130	128	125	102	116	116	115	119	121	0	
1:27:35 PM	122	119	124	134	126	122	123	128	123	121	122	123	0	
1:27:35 PM	124	121	125	132	127	123	129	129	124	122	122	123	0	
1:27:35 PM	124	122	125	132	127	124	129	129	124	122	122	123	0	
1:27:35 PM	124	122	125	132	127	124	129	129	124	122	122	123	0	
1:27:35 PM	124	122	125	131	127	124	129	129	124	122	123	123	0	
1:27:35 PM	124	122	126	131	127	124	129	129	124	122	123	124	0	
1:27:35 PM	124	123	126	131	127	124	129	129	125	122	123	124	0	
1:27:35 PM	124	123	126	131	127	124	129	129	125	123	123	124	0	
1:27:35 PM	125	123	126	131	127	124	129	129	125	123	123	124	0	
1:27:35 PM	125	123	126	131	127	124	129	128	125	123	123	124	0	
1:27:35 PM	125	123	126	131	127	125	129	128	125	123	123	124	0	
1:27:35 PM	125	123	126	131	127	125	128	128	125	123	124	124	0	
1:27:35 PM	125	124	126	130	127	125	128	128	126	124	124	124	0	
1:27:35 PM	125	124	126	130	127	125	128	129	128	126	124	125	0	
1:27:35 PM	126	125	127	129	127	126	129	131	134	130	126	127	0	
1:27:35 PM	128	128	127	126	128	128	129	134	139	135	129	130	0	
1:27:35 PM	131	132	128	123	129	130	130	137	144	140	132	132	0	
1:27:35 PM	133	135	129	120	129	132	131	139	149	143	135	133	0	
1:27:35 PM	135	138	130	118	130	134	132	142	152	146	138	135	0	
1:27:35 PM	137	140	131	116	130	136	132	142	153	148	139	136	0	
1:27:35 PM	138	141	131	115	131	136	132	142	154	148	139	136	0	
1:27:35 PM	138	142	131	115	131	136	133	142	152	147	138	135	0	
1:27:35 PM	138	141	130	115	131	136	133	141	149	145	138	134	0	
1:27:35 PM	137	139	130	117	131	135	132	139	144	140	136	133	0	
1:27:35 PM	134	137	130	119	130	134	131	137	138	135	134	131	0	
1:27:36 PM	132	133	129	122	129	131	130	133	132	129	130	128	0	
1:27:36 PM	128	129	128	126	127	129	129	129	125	124	126	126	0	
1:27:36 PM	125	125	127	130	127	126	128	125	120	120	123	124	0	
1:27:36 PM	123	122	126	132	126	124	127	124	118	119	121	123	0	
1:27:36 PM	123	121	125	133	126	123	127	124	118	119	121	123	0	
1:27:36 PM	123	121	125	133	126	123	127	124	119	119	122	123	0	
1:27:36 PM	123	121	125	133	126	123	127	124	119	119	122	123	0	
1:27:36 PM	123	121	125	133	126	123	127	124	119	120	122	123	0	
1:27:36 PM	123	121	125	132	126	123	127	124	120	120	122	123	0	
1:27:36 PM	123	121	125	132	126	123	127	124	120	120	122	123	0	
1:27:36 PM	123	122	126	132	126	124	127	125	120	120	122	124	0	
1:27:36 PM	124	122	126	132	126	124	127	125	120	121	123	124	0	
1:27:36 PM	124	122	126	132	126	124	127	125	121	121	123	124	0	
1:27:36 PM	124	122	126	132	126	124	127	125	121	121	123	124	0	
1:27:36 PM	124	122	126	131	126	124	127	125	121	121	123	124	0	
1:27:36 PM	124	123	126	131	127	124	127	125	121	122	123	124	0	
1:27:36 PM	124	123	126	131	127	124	127	125	121	122	123	124	0	
1:27:36 PM	124	123	126	131	127	124	127	125	122	122	124	124	0	
1:27:36 PM	124	123	126	131	127	125	127	125	122	122	124	125	0	
1:27:36 PM	125	123	126	131	127	125	127	125	122	122	124	125	0	
1:27:36 PM	125	123	126	131	127	125	127	125	122	123	124	125	0	
1:27:36 PM	125	124	126	130	127	125	127	125	122	123	124	125	0	
1:27:36 PM	125	124	126	130	127	125	127	126	123	123	124	125	0	
1:27:36 PM	125	124	126	130	127	125	127	125	123	123	124	125	0	
1:27:36 PM	125	124	126	130	127	125	127	126	123	123	124	125	0	
1:27:36 PM	125	124	126	130	127	125	127	126	123	123	124	125	0	
1:27:36 PM	125	124	126	130	127	125	127	126	123	124	125	125	0	
1:27:36 PM	125	124	126	130	127	125	127	127	126	126	127	127	0	
1:27:36 PM	127	127	127	128	127	127	127	130	129	129	130	129	0	
1:27:36 PM	130	131	128	125	128	130	128	131	131	131	132	131	0	
1:27:36 PM	132	133	129	122	129	131	129	131	131	131	132	131	0	
1:27:36 PM	132	134	129	122	129	131	130	131	130	130	131	131	0	
1:27:36 PM	131	132	129	123	128	131	129	129	129	129	130	129	0	
1:27:36 PM	128	129	128	126	127	129	128	127	126	126	127	126	0	
1:27:36 PM	126	126	127	129	127	126	127	125	123	123	124	125	0	
1:27:36 PM	125	124	126	130	127	125	127	125	123	123	124	125	0	
1:27:36 PM	125	124	126	130	127	125	127	125	123	123	124	125	0	
1:27:36 PM	125	124	126	130	127	125	127	126	123	124	124	125	0	
1:27:36 PM	125	124	126	130	127	125	127	126	124	124	124	125	0	
1:27:36 PM	125	124	126	130	127	125	127	126	124	124	125	125	0	
1:27:36 PM	125	124	126	130	127	125	127	126	124	124	125	125	0	
1:27:36 PM	125	124	126	130	127	125	127	126	124	124	125	125	0	
1:27:36 PM	125	124	126	130	127	125	127	126	123	124	124	125	0	
1:27:36 PM	125	124	126	130	127	125	127	127	125	123	122	122	0	
1:27:36 PM	123	122	127	132	126	125	129	136	145	140	132	130	0	
1:27:36 PM	128	131	131	125	126	131	134	146	174	177	163	155	0	
1:27:36 PM	145	158	141	103	129	150	135	123	155	178	176	168	0	
1:27:36 PM	154	172	145	92	132	159	117	79	100	136	148	150	0	
1:27:36 PM	143	150	135	108	131	143	94	80	90	110	122	127	0	
1:27:36 PM	127	125	126	129	128	126	100	114	114	114	119	121	0	
1:27:36 PM	122	119	124	134	126	122	122	128	123	121	121	122	0	
1:27:36 PM	123	121	125	132	127	123	129	129	124	122	122	123	0	
1:27:36 PM	124	122	125	132	127	124	129	129	124	122	122	123	0	
1:27:36 PM	124	122	125	132	127	124	129	129	124	122	122	123	0	
1:27:36 PM	124	122	126	132	127	124	129	129	124	122	123	123	0	
1:27:36 PM	124	122	126	131	127	124	129	129	124	122	123	123	0	
1:27:36 PM	124	123	126	131	127	124	129	129	125	122	123	124	0	
1:27:36 PM	124	123	126	131	127	124	129	129	125	123	123	124	0	
1:27:36 PM	125	123	126	131	127	124	129	128	125	123	123	124	0	
1:27:36 PM	125	123	126	131	127	124	129	128	125	123	123	124	0	
1:27:36 PM	125	123	126	131	127	124	129	128	125	123	123	124	0	
1:27:36 PM	125	123	126	131	127	125	129	128	125	123	124	124	0	
1:27:36 PM	125	123	126	130	127	125	128	128	125	124	124	124	0	
1:27:36 PM	125	124	126	130	127	125	128	129	128	125	124	125	0	
1:27:36 PM	126	125	127	129	127	126	129	131	133	129	126	127	0	
1:27:36 PM	128	128	127	126	128	128	129	133	139	134	129	129	0	
1:27:36 PM	131	132	128	123	129	130	130	136	144	139	132	132	0	
1:27:36 PM	133	135	129	121	129	132	131	139	148	143	135	133	0	
1:27:36 PM	135	138	130	118	130	134	132	141	151	146	138	135	0	
1:27:36 PM	136	140	131	116	130	135	132	142	153	148	139	136	0	
1:27:36 PM	137	141	131	115	130	136	132	142	154	148	139	136	0	
1:27:36 PM	138	141	131	115	131	136	133	142	153	147	139	135	0	
1:27:36 PM	138	141	131	116	131	136	133	141	149	145	138	134	0	
1:27:36 PM	136	139	130	117	130	135	132	140	144	141	136	133	0	
1:27:36 PM	134	137	130	119	130	134	131	137	139	135	134	131	0	
1:27:36 PM	132	134	129	122	129	131	130	133	132	130	130	129	0	
1:27:36 PM	129	129	128	126	128	129	129	129	125	124	126	126	0	
1:27:36 PM	125	125	127	129	127	126	128	125	120	120	123	124	0	
1:27:36 PM	123	122	126	132	126	124	127	124	118	119	121	123	0	
1:27:36 PM	123	121	125	133	126	123	127	124	118	119	121	123	0	
1:27:36 PM	123	121	125	133	126	123	127	124	119	119	122	123	0	
1:27:36 PM	123	121	125	133	126	123	127	124	119	119	122	123	0	
1:27:36 PM	123	121	125	133	126	123	127	124	119	120	122	123	0	
1:27:36 PM	123	121	125	132	126	123	127	124	120	120	122	123	0	
1:27:36 PM	123	121	126	132	126	123	127	124	120	120	122	123	0	
1:27:36 PM	123	122	126	132	126	124	127	125	120	120	122	124	0	
1:27:36 PM	124	122	126	132	126	124	127	125	120	121	123	124	0	
1:27:36 PM	124	122	126	132	126	124	127	125	121	121	123	124	0	
1:27:36 PM	124	122	126	132	126	124	127	125	121	121	123	124	0	
1:27:36 PM	124	122	126	131	126	124	127	125	121	121	123	124	0	
1:27:36 PM	124	123	126	131	126	124	127	125	121	122	123	124	0	
1:27:36 PM	124	123	126	131	126	124	127	125	121	122	123	124	0	
1:27:36 PM	124	123	126	131	127	124	127	125	122	122	124	124	0	
1:27:36 PM	124	123	126	131	127	125	127	125	122	122	124	124	0	
1:27:36 PM	125	123	126	131	127	125	127	125	122	122	124	125	0	
1:27:36 PM	125	123	126	131	127	125	127	125	122	122	124	125	0	
1:27:36 PM	125	124	126	131	127	125	127	125	122	123	124	125	0	
1:27:36 PM	125	124	126	130	127	125	127	125	122	123	124	125	0	
1:27:36 PM	125	124	126	130	127	125	127	126	123	123	124	125	0	
1:27:36 PM	125	124	126	130	127	125	127	126	123	123	124	125	0	
1:27:37 PM	125	124	126	130	127	125	127	126	123	123	124	125	0	
1:27:37 PM	125	124	126	130	127	125	127	126	123	124	125	125	0	
1:27:37 PM	125	124	126	130	127	125	127	127	126	126	127	126	0	
1:27:37 PM	127	127	127	128	127	127	127	130	129	129	130	129	0	
1:27:37 PM	129	130	128	125	128	129	128	131	131	131	132	131	0	
1:27:37 PM	132	133	129	122	129	131	129	132	131	131	132	131	0	
1:27:37 PM	132	134	129	122	129	131	130	131	130	131	132	131	0	
1:27:37 PM	131	132	129	123	129	131	129	129	129	129	130	129	0	
1:27:37 PM	129	130	128	126	128	129	128	127	126	126	127	126	0	
1:27:37 PM	126	126	127	129	127	126	127	125	124	124	124	125	0	
1:27:37 PM	125	124	126	130	127	125	127	125	123	123	124	125	0	
1:27:37 PM	125	124	126	130	127	125	127	125	123	123	124	125	0	
1:27:37 PM	125	124	126	130	127	125	127	125	123	124	124	125	0	
1:27:37 PM	125	124	126	130	127	125	127	126	124	124	124	125	0	
1:27:37 PM	125	124	126	130	127	125	127	126	124	124	125	125	0	
1:27:37 PM	125	124	126	130	127	125	127	126	124	124	125	125	0	
1:27:37 PM	125	124	126	130	127	125	127	126	124	124	125	125	0	
1:27:37 PM	125	124	126	130	127	125	127	126	123	124	124	125	0	
1:27:37 PM	125	124	126	130	127	125	127	126	124	122	122	122	0	
1:27:37 PM	123	122	127	132	126	125	129	135	143	138	131	129	0	
1:27:37 PM	127	130	130	126	126	130	134	146	173	174	161	153	0	
1:27:37 PM	143	156	140	105	129	148	135	126	159	179	176	169	0	
1:27:37 PM	154	172	145	92	132	159	119	81	103	139	151	152	0	
1:27:37 PM	144	153	136	106	131	145	95	78	89	110	123	128	0	
1:27:37 PM	128	126	126	128	128	126	99	112	113	114	119	121	0	
1:27:37 PM	122	119	124	134	126	122	121	128	123	121	121	122	0	
1:27:37 PM	123	121	125	132	127	123	129	129	124	122	122	123	0	
1:27:37 PM	124	122	125	132	127	123	129	129	124	122	122	123	0	
1:27:37 PM	124	122	125	132	127	124	129	129	124	122	122	123	0	
1:27:37 PM	124	122	125	132	127	124	129	129	124	122	123	123	0	
1:27:37 PM	124	122	126	131	127	124	129	129	124	122	123	123	0	
1:27:37 PM	124	123	126	131	127	124	129	129	125	122	123	124	0	
1:27:37 PM	124	123	126	131	127	124	129	129	125	123	123	124	0	
1:27:37 PM	125	123	126	131	127	124	129	129	125	123	123	124	0	
1:27:37 PM	125	123	126	131	127	124	129	128	125	123	123	124	0	
1:27:37 PM	125	123	126	131	127	125	129	128	125	123	123	124	0	
1:27:37 PM	125	123	126	131	127	125	128	128	125	123	124	124	0	
1:27:37 PM	125	123	126	130	127	125	128	128	125	124	124	124	0	
1:27:37 PM	125	124	126	130	127	125	128	129	128	125	124	125	0	
1:27:37 PM	126	125	126	129	127	126	129	131	133	129	126	127	0	
1:27:37 PM	128	128	127	127	128	128	129	133	138	134	129	129	0	
1:27:37 PM	131	131	128	124	129	130	130	136	144	139	132	131	0	
1:27:37 PM	133	135	129	121	129	132	131	139	148	143	135	133	0	
1:27:37 PM	135	138	130	118	130	134	132	141	151	146	137	135	0	
1:27:37 PM	136	140	131	117	130	135	132	142	153	148	139	135	0	
1:27:37 PM	137	141	131	115	131	136	132	142	154	148	139	136	0	
1:27:37 PM	138	142	131	115	131	136	133	142	153	148	139	135	0	
1:27:37 PM	138	141	131	115	131	136	133	141	150	145	138	135	0	
1:27:37 PM	137	139	130	117	131	135	132	140	145	141	137	133	0	
1:27:37 PM	135	137	130	119	130	134	131	137	139	136	134	131	0	
1:27:37 PM	132	134	129	122	129	132	130	133	133	130	131	129	0	
1:27:37 PM	129	130	128	126	128	129	129	129	126	124	127	126	0	
1:27:37 PM	126	125	127	129	127	126	128	126	120	120	123	124	0	
1:27:37 PM	123	122	126	132	126	124	127	124	118	119	121	123	0	
1:27:37 PM	123	121	125	133	126	123	127	124	118	119	121	123	0	
1:27:37 PM	123	121	125	133	126	123	127	124	119	119	121	123	0	
1:27:37 PM	123	121	125	133	126	123	127	124	119	119	122	123	0	
1:27:37 PM	123	121	125	133	126	123	127	124	119	120	122	123	0	
1:27:37 PM	123	121	125	132	126	123	127	124	120	120	122	123	0	
1:27:37 PM	123	121	126	132	126	123	127	124	120	120	122	123	0	
1:27:37 PM	123	122	126	132	126	124	127	125	120	120	122	123	0	
1:27:37 PM	124	122	126	132	126	124	127	125	120	121	123	124	0	
1:27:37 PM	124	122	126	132	126	124	127	125	121	121	123	124	0	
1:27:37 PM	124	122	126	132	126	124	127	125	121	121	123	124	0	
1:27:37 PM	124	122	126	131	126	124	127	125	121	121	123	124	0	
1:27:37 PM	124	123	126	131	126	124	127	125	121	122	123	124	0	
1:27:37 PM	124	123	126	131	126	124	127	125	121	122	123	124	0	
1:27:37 PM	124	123	126	131	126	124	127	125	122	122	124	124	0	
1:27:37 PM	124	123	126	131	127	125	127	125	122	122	124	124	0	
1:27:37 PM	125	123	126	131	127	125	127	125	122	122	124	125	0	
1:27:37 PM	125	123	126	131	127	125	127	125	122	123	124	125	0	
1:27:37 PM	125	123	126	131	127	125	127	125	122	123	124	125	0	
1:27:37 PM	125	124	126	130	127	125	127	125	123	123	124	125	0	
1:27:37 PM	125	124	126	130	127	125	127	126	123	123	124	125	0	
1:27:37 PM	125	124	126	130	127	125	127	126	123	123	124	125	0	
1:27:37 PM	125	124	126	130	127	125	127	126	123	123	124	125	0	
1:27:37 PM	125	124	126	130	127	125	127	126	123	124	125	125	0	
1:27:37 PM	125	124	126	130	127	125	127	127	125	126	127	126	0	
1:27:37 PM	126	126	127	128	127	127	127	129	129	129	130	129	0	
1:27:37 PM	129	130	128	125	128	129	128	131	131	131	132	131	0	
1:27:37 PM	131	133	129	123	129	131	129	131	131	131	132	131	0	
1:27:37 PM	132	134	129	122	129	131	130	131	130	131	132	131	0	
1:27:37 PM	131	133	129	123	129	131	129	129	129	129	130	129	0	
1:27:37 PM	129	130	128	125	128	129	128	127	126	126	127	127	0	
1:27:37 PM	126	126	127	129	127	127	127	125	124	124	125	125	0	
1:27:37 PM	125	124	126	130	127	125	127	125	123	123	124	125	0	
1:27:37 PM	125	124	126	130	127	125	127	125	123	123	124	125	0	
1:27:37 PM	125	124	126	130	127	125	127	125	123	123	124	125	0	
1:27:37 PM	125	124	126	130	127	125	127	126	124	124	124	125	0	
1:27:37 PM	125	124	126	130	127	125	127	126	124	124	125	125	0	
1:27:37 PM	125	124	126	130	127	125	127	126	124	124	125	125	0	
1:27:37 PM	125	124	126	130	127	125	127	126	124	124	125	125	0	
1:27:37 PM	125	124	126	130	127	125	127	126	124	124	124	125	0	
1:27:37 PM	125	124	126	130	127	125	127	126	123	122	122	122	0	
1:27:37 PM	123	122	127	132	126	124	128	134	141	136	129	128	0	
1:27:37 PM	126	128	130	127	126	129	134	146	172	172	159	151	0	
1:27:37 PM	142	154	139	107	129	147	136	129	162	181	176	168	0	
1:27:37 PM	154	172	145	91	132	159	121	83	106	142	153	154	0	
1:27:37 PM	145	155	137	104	131	146	96	76	88	111	125	129	0	
1:27:37 PM	128	128	127	127	128	127	98	109	111	113	119	121	0	
1:27:37 PM	122	119	124	134	126	122	120	127	123	121	121	122	0	
1:27:38 PM	123	121	125	132	127	123	129	129	124	122	122	123	0	
1:27:38 PM	124	122	125	132	127	124	129	129	124	122	122	123	0	
1:27:38 PM	124	122	125	132	127	124	129	129	124	122	122	123	0	
1:27:38 PM	124	122	125	132	127	124	129	129	124	122	123	123	0	
1:27:38 PM	124	122	125	131	127	124	129	129	124	122	123	123	0	
1:27:38 PM	124	122	126	131	127	124	129	129	124	122	123	124	0	
1:27:38 PM	124	123	126	131	127	124	129	129	125	123	123	124	0	
1:27:38 PM	125	123	126	131	127	124	129	129	125	123	123	124	0	
1:27:38 PM	125	123	126	131	127	124	129	128	125	123	123	124	0	
1:27:38 PM	125	123	126	131	127	124	129	128	125	123	123	124	0	
1:27:38 PM	125	123	126	131	127	125	129	128	125	123	124	124	0	
1:27:38 PM	125	123	126	131	127	125	128	128	125	123	124	124	0	
1:27:38 PM	125	124	126	130	127	125	128	129	128	125	124	125	0	
1:27:38 PM	126	125	126	129	127	126	129	130	132	129	126	127	0	
1:27:38 PM	128	128	127	127	128	127	129	133	138	134	129	129	0	
1:27:38 PM	130	131	128	124	129	130	130	136	143	138	132	131	0	
1:27:38 PM	133	134	129	121	129	132	131	139	148	143	135	133	0	
1:27:38 PM	135	137	130	118	130	134	132	141	151	146	137	135	0	
1:27:38 PM	136	140	131	117	130	135	132	142	153	148	139	135	0	
1:27:38 PM	137	141	131	116	131	136	132	142	154	148	139	136	0	
1:27:38 PM	138	142	131	115	131	136	133	142	153	148	139	135	0	
1:27:38 PM	138	141	131	115	131	136	133	141	150	145	138	135	0	
1:27:38 PM	137	140	130	117	131	135	132	140	145	142	137	134	0	
1:27:38 PM	135	138	130	118	130	134	131	137	140	136	134	132	0	
